emg1,emg2,emg3,label
1.2676907506690809,1.7629261303030166e-16,0.0,1
1.7954550964134888,-0.00266964392234498,6.11983016896469e-17,1
2.20137096684674,-0.004309212375535282,9.912245797308628e-17,1
2.54019335271855,-0.005259751438735577,1.812137685515271e-16,1
2.8393725240075924,-0.005424897106813673,2.0005552341127766e-16,1
3.1061697224514666,-0.010793837036480599,2.190775632634439e-16,1
3.352154284653964,-0.012925240614977572,3.367041183349374e-16,1
3.5812015584285777,-0.014427697085369312,2.670605588338497e-16,1
3.7992663013331045,-0.014599196418850833,1.5968030016704503e-16,1
4.016018064426962,-0.03829044883350127,3.8128424277488956e-16,1
4.016684694905484,-0.03817788507905119,1.5463050456587574e-16,1
4.0227820340499205,-0.04283694693251628,4.057193157796183e-16,1
4.021317926727503,-0.04298531903843681,2.1982909184112807e-16,1
4.0321676840855325,-0.05126031212928002,2.0288309035993245e-16,1
4.033093859219217,-0.05089997764277011,2.0002043712708138e-16,1
4.0464340781714006,-0.052948880281184975,1.6465806913747687e-16,1
4.053293174808341,-0.04864242428291234,1.8841021453192992e-16,1
4.054973662318692,-0.04657890757175974,2.3538925179321253e-16,1
4.058506132794064,-0.04429989414712562,2.7005374065548404e-16,1
4.048065673452656,-0.0417540774434886,3.0455005150894323e-16,1
4.0450560470424,-0.044926151165910484,1.3110836709181045e-16,1
4.0360594963879475,-0.04613542608473838,3.011726200522976e-16,1
4.031131401172283,-0.0507355609298959,1.3358966971909497e-16,1
4.0184148986619626,-0.043017546733468165,4.131259218759171e-16,1
4.015649750483543,-0.043809915947237224,2.119252806422081e-16,1
4.0033799867908115,-0.026765776385954076,1.4139437682413885e-16,1
3.996944146208796,-0.020658681569425547,2.2767225497325273e-16,1
3.9962813196308105,-0.0206147134368945,1.4193970403698264e-16,1
3.9924840694994987,-0.01254281780618544,2.9464077387781746e-16,1
3.989406141455733,-0.010804718929400017,3.1541159634878835e-16,1
3.9909780902000476,-0.011216608555583266,2.605082580969707e-16,1
3.9907523976060344,-0.01122460559447042,2.5409789735213716e-16,1
3.9926677320754154,-0.00760905488470054,2.129396078231611e-16,1
3.991904532838313,-0.008244540988963678,3.6795548430540654e-16,1
3.9902381224622547,-0.009380900930989023,3.4488718766031974e-16,1
3.9904119758520316,-0.009452144739729402,2.066880715240294e-16,1
3.992584612239562,-0.011415707700314416,1.7827519972476743e-16,1
3.9928283908149744,-0.011493022003823945,2.1247561019146673e-16,1
3.9918043754872614,-0.01039998706046826,3.1131142620466935e-16,1
4.036066711913369,-0.2103691399070716,2.3900970550384207e-16,1
4.055435238276268,-0.20820895134864012,2.683010862177078e-16,1
4.062252176729981,-0.20478202161057715,2.031831860304051e-16,1
4.065644964932154,-0.20272947297526295,5.100941590727608e-16,1
4.067430381485708,-0.20157658763799852,1.7523283585041412e-16,1
4.068401695773851,-0.20091535683930156,1.794369133643055e-16,1
4.068032427032185,-0.20115307837445462,1.4065959965494327e-16,1
4.06403613543447,-0.20370587560814993,2.7770998451684496e-16,1
4.066067622464435,-0.2025219009584403,2.1051818985620951e-16,1
4.06622870996888,-0.20242287521023603,1.5809382268249427e-16,1
4.022204716935542,-0.0653280936527918,1.7193788234683888e-16,1
4.000349864628786,-0.02414765625995703,2.296209214854082e-16,1
3.9936499204318876,-0.014831632579644139,1.9423117065165834e-16,1
3.991925637426364,-0.012938776866538857,4.579363096859867e-16,1
3.990780488742763,-0.012742252975909269,2.474638201262734e-16,1
3.991621058618265,-0.012684175692447276,1.4780013960116342e-16,1
4.000940459522214,-0.03164932100421121,1.609679367361734e-16,1
4.005995258125894,-0.030522050391716283,3.920935656217449e-16,1
4.0055161698646495,-0.03039158303664407,4.549162712208935e-16,1
4.005395169794271,-0.030419324604015245,2.664541463609822e-16,1
4.00516990489102,-0.030543862270305096,1.4374741192874472e-16,1
4.004557805080224,-0.031246555234341333,2.4884780891189446e-16,1
4.004042184922354,-0.03154798587236062,1.1337956305007213e-16,1
4.01583199258514,-0.04711770233176944,1.1813346100810944e-16,1
4.030498334602469,-0.0581152567089415,1.281009017812383e-16,1
4.034185686274114,-0.05660012418938911,3.7356810369561058e-16,1
4.0235899986693955,-0.05673231719587706,2.8506881134558936e-16,1
4.0191657985202225,-0.05863178824157968,3.5004814865714474e-16,1
4.017465926164397,-0.05917500409730218,1.633792736602034e-16,1
4.01622509364277,-0.059764095086167424,2.0532012296985907e-16,1
4.018097015043692,-0.05900111342719885,2.393172415338814e-16,1
4.020491230519867,-0.05719521517911093,1.8406875126896454e-16,1
4.0333895196882965,-0.06138481208570564,1.582863456781082e-16,1
4.0244166527389655,-0.054854542710838304,1.480512198811476e-16,1
4.012609076389247,-0.03948505343155913,2.1831600375764406e-16,1
4.009852285668772,-0.03918139601589123,3.531172868546138e-16,1
4.010764855065754,-0.038524555244625884,3.0364743478894607e-16,1
4.012520271437349,-0.03734927158912712,1.578592095199219e-16,1
4.009781679884487,-0.03946881423007816,1.9732524696812198e-16,1
4.009535762087535,-0.03962740479759159,1.6510716138977795e-16,1
4.0077616003018965,-0.040192019193660465,1.6110630488812253e-16,1
4.0073434005528625,-0.040416860063153356,2.705797245450242e-16,1
3.9961960609365277,-0.01624227661467299,1.6242576084690365e-16,1
3.9905450132199674,-0.013958657174987201,1.9940074223604819e-16,1
3.9888674719845483,-0.011483277237563675,1.8295438904202042e-16,1
3.986900909758377,-0.010358266011911284,1.539475582630123e-16,1
3.986042595274348,-0.01059202141797973,2.4218628570831015e-16,1
3.9846112917255505,-0.01008708152264569,1.291502884845739e-16,1
3.986485340929657,-0.008561345119597405,3.2575786287059244e-16,1
3.9856451669891357,-0.00912675903850597,2.92151752090985e-16,1
3.9834093855984576,-0.010591817724836519,3.593359452427252e-16,1
3.9842445438997083,-0.011042518516719113,1.7188828927644483e-16,1
3.983058898865423,-0.009652600854891709,1.8202450030372814e-16,1
3.985195932862075,-0.009104942087343883,1.416971772581353e-16,1
3.9845178389153957,-0.008193448676746696,3.355134964997623e-16,1
3.9949452768864218,-0.03365507441114944,2.0797680477809746e-16,1
4.0017490183027835,-0.03641407423689366,1.4482340144129673e-16,1
4.00369226164038,-0.03572567544684106,1.9607878027785286e-16,1
4.00494688343478,-0.03528743537657213,4.3884352468825835e-16,1
4.00975787198843,-0.034068147576954325,1.6930184767893135e-16,1
4.012122266760726,-0.031753699372902296,6.55257577808e-16,0
4.019399305484153,-0.0347867228174645,4.154211214508167e-16,0
4.0436530261076165,-0.07753962173474072,2.1503891446485097e-16,0
4.0858686352307565,-0.25237171508768924,1.6090519653157588e-16,0
4.133546684890248,-0.27771549163617804,4.2419952426732187e-16,0
4.148221246564224,-0.2685574163325773,3.6628786373877384e-16,0
4.151852012536439,-0.2656332585520133,6.375508438048148e-16,0
4.157051397441094,-0.26115258153799537,4.3920228364903133e-16,0
4.159028334296385,-0.2593964702262343,2.7004585236848853e-16,0
4.161621454982737,-0.2571665961246595,3.214829239666159e-16,0
4.166267043554979,-0.25301440276675086,2.53390518132214e-16,0
4.1598460013620056,-0.25857296237465754,1.0764941804018403e-16,0
4.136170287996397,-0.2751510231750699,2.009512721656494e-16,0
4.093427576964875,-0.22188511808804812,1.2851205575490682e-16,0
4.052001937493881,-0.06905028217683698,1.3256783034058862e-16,0
4.033240163856763,-0.02299835675654238,2.0013336752119173e-16,0
4.0259464782129895,-0.016705714577742902,1.648364657981043e-16,0
4.0213181263857445,-0.015191785922935236,2.2594299354346525e-16,0
4.019943644767979,-0.015943725054153198,1.5559935122489788e-16,0
4.0179812068859375,-0.01310913749408173,1.9195902816971665e-16,0
4.017042412844936,-0.012066770582382775,1.7303896881933376e-16,0
4.016537712144926,-0.012686497521492562,2.843971123503862e-16,0
4.015339411888298,-0.014117864311560435,3.4665807785375377e-16,0
4.012945204537126,-0.015036647320061594,1.9947345606057555e-16,0
4.011691139898845,-0.014755888954390475,3.936917729520843e-16,0
4.015796862831731,-0.02513502674964265,2.8217263181791845e-16,0
4.023835536475909,-0.033642889095960075,1.5732556726143243e-16,0
4.028965232497614,-0.03418189767054368,3.4879691577827955e-16,0
4.029446069444671,-0.033865415087337425,4.004049215698533e-16,0
4.026300235408814,-0.035258560740986905,2.878697801495911e-16,0
4.026484945328105,-0.035254745037697786,1.530806165792042e-16,0
4.028781280548777,-0.034025215480438964,1.2304896908431897e-16,0
4.031807932760595,-0.03198621452758858,3.6501158278021503e-16,0
4.032857707458687,-0.03097259973401902,1.4894818629774848e-16,0
4.032467231840209,-0.031291951967151434,3.6747919542669556e-16,0
4.025448451512931,-0.02718472819901582,3.4538995634199063e-16,0
4.016845371448782,-0.01640414683088533,1.4100570182829557e-16,0
4.011127001688974,-0.009891514785988499,2.3217432145521644e-16,0
4.010140532798769,-0.010413613967372119,3.17085326318047e-16,0
4.009990903658813,-0.010591120105400925,2.2339737730543754e-16,0
4.006215199485902,-0.009999359709553228,5.309604793928937e-16,0
4.004635501365693,-0.00853559873674672,2.2049001055391348e-16,0
4.0040032311683404,-0.007173875231014286,2.403028265443836e-16,0
4.002871556819985,-0.007463011669005036,1.7355103844777005e-16,0
4.001523948293342,-0.008020991293693476,2.1280955380629502e-16,0
3.9986186031865913,-0.009170768631456072,1.7247364748122152e-16,0
3.9984358099427895,-0.009080643188489881,1.5478607214680657e-16,0
3.9995064075081204,-0.009783398128164974,2.965816377881378e-16,0
4.008924442304275,-0.03131492050425211,1.1743304156951656e-16,0
4.017629011592808,-0.03817050097587592,2.697250697690081e-16,0
4.026672665217013,-0.04108618715052308,1.1187628267835488e-16,0
4.049769503339963,-0.08019100865858571,3.6330393676218913e-16,0
4.06167256725393,-0.08203875477563609,2.1153353629307635e-16,0
4.083061157194326,-0.08865111167098177,1.9013465655604255e-16,0
4.126553049486004,-0.1628266827514005,2.4296310592892325e-16,0
4.1580185957113756,-0.1540396113516162,2.0368242587236814e-16,0
4.18755028571815,-0.1419028311369544,3.0090184109802337e-16,0
4.210033695351839,-0.12548459199127895,1.8268648640194004e-16,0
4.2257614423301915,-0.11588319326363329,1.1069950000849258e-16,0
4.235039990049841,-0.10715558163977164,2.94701784592431e-16,0
4.244046479941191,-0.09772404182723357,1.4209742082235493e-16,0
4.23339012865233,-0.10527396573112233,2.820835797229442e-16,0
4.236775770661149,-0.10228856871018767,1.5087624770328402e-16,0
4.225552145998808,-0.11165761056067469,1.3227958432677814e-16,0
4.194398334456609,-0.06814643712493149,2.470076224205905e-16,0
4.178023902764867,-0.06241270505304499,1.6410116438139064e-16,0
4.160343926695124,-0.049375528702137426,2.5590349134813414e-16,0
4.145334301194168,-0.04767559844524999,1.3070992964173867e-16,0
4.129409860081562,-0.03231581237408464,1.555768467332173e-16,0
4.117341685803539,-0.03483493811891458,2.274357979616267e-16,0
4.108795733221635,-0.03087475188959509,2.7813302017989785e-16,0
4.1062412980021215,-0.030014735026590102,2.0243668441878262e-16,0
4.099089297159558,-0.020495336327115598,3.1130992989903684e-16,0
4.097949834360612,-0.02089178020101455,3.6718467167767865e-16,0
4.093523662811159,-0.020007106296578394,2.378595034851926e-16,0
4.0906464461296235,-0.016146352830032594,1.403603632402446e-16,0
4.0904281423324615,-0.01577430716077247,2.7926647330819376e-16,0
4.089208157851748,-0.016672098140783874,2.753316878833084e-16,0
4.086312319660369,-0.018484383151560455,1.9327275574777984e-16,0
4.085975586560906,-0.019037764285031008,1.6469591579651068e-16,0
4.085254917584579,-0.019184523315457974,5.163173126652555e-16,0
4.081628100016197,-0.018312049751196723,2.69407140287104e-16,0
4.0797843778811,-0.017444385939282735,5.653026874428296e-16,0
4.077470774067686,-0.018008424010251916,3.8230215515316304e-16,0
4.074062528850757,-0.020617307560306296,3.7326256148888725e-16,0
4.068371805329211,-0.020222599967878674,2.2282741570554387e-16,0
4.060673246113652,-0.01422557556867053,2.3980596789052296e-16,0
4.058976770923955,-0.01381370206184275,2.7086997848216654e-16,0
4.058918584367912,-0.013801221810285374,1.235694787156075e-16,0
4.096824583935149,-0.17437197837127943,1.7279651687904343e-16,0
4.106181403988382,-0.17234845183734415,3.161978239343917e-16,0
4.10896948343129,-0.1710671980833363,1.777962593683175e-16,0
4.109640731546323,-0.1707515861253795,5.138052888331929e-16,0
4.106478911810161,-0.17270450028249187,1.6150888362471165e-16,0
4.109038494353623,-0.1712220670547772,2.168847132833011e-16,0
4.10903911550188,-0.17122167243815392,4.1592172654171504e-16,0
4.108420512619478,-0.1716349334788739,2.596320477957832e-16,0
4.106776480646891,-0.17265189611191953,2.516225046577389e-16,0
4.102878430224678,-0.17507569711005813,1.33732112139705e-16,0
4.066336384326361,-0.04374292975901717,3.2011771005879694e-16,0
4.049385253036619,-0.028697072128733406,3.2683275402050334e-16,1
4.051616907065645,-0.033252291977993516,4.1771307213515763e-16,1
3.9888855591357695,-0.45319651328514304,2.653469446208837e-16,1
3.835617367397813,-0.6252171486402286,2.0097083287354917e-16,1
3.861634603759127,-0.5037653395336272,1.4881088446369413e-16,1
3.921560808458779,-0.3178050396894045,1.927789836322618e-16,1
3.9508745945159136,-0.2669897748053344,2.8579504718439365e-16,1
3.9655196422891175,-0.24412726919324326,1.4746784382396168e-16,1
3.974431393992268,-0.2311642968370686,1.427769206893731e-16,1
3.9831533781570285,-0.2178877979173669,4.1728466755304207e-16,1
3.9993675423111714,-0.19467760010074062,3.8604300678999103e-16,1
3.9936937993467456,-0.20292090894197654,2.436713805211387e-16,1
4.014762266104759,-0.3826437043668434,2.2895505033254045e-16,1
4.1493745655556,-0.32197781155717187,1.9542546298790012e-16,1
4.145223126490681,-0.2522823663495287,2.261657688245261e-16,1
4.120026292716549,-0.06792726669789241,1.9561855848538048e-16,1
4.102965892114347,-0.03752345966215931,2.8334208653752733e-16,1
4.092283502016767,-0.03306041406566698,3.4499937569370224e-16,1
4.087126496463009,-0.035183932685121225,1.4144053209701528e-16,1
4.077068489543305,-0.0315405998417572,1.8323286224166851e-16,1
4.0668707210195345,-0.021057639789327485,3.246069482430225e-16,1
4.064143069043134,-0.022434508934392833,1.219927240200723e-16,1
4.064786510974644,-0.02222640098197628,7.111067185055549e-17,1
4.063180054218037,-0.02135978459449046,1.6273586655184341e-16,1
4.0651440986603635,-0.02139108579487509,1.0551923046157032e-16,1
4.059840553745306,-0.018074116168380387,1.5464309438124265e-16,1
4.05891583145273,-0.015791539559438114,4.269302048861407e-16,1
4.062941708841529,-0.01995550729448813,6.082039930352009e-16,1
4.067631628428945,-0.02201239788927697,1.6067697594490692e-16,1
4.072422433780948,-0.02145855972609103,3.328644344755154e-16,1
4.077717342830341,-0.02079447415367439,1.471760605431345e-16,1
4.080336118394239,-0.017509279750583508,1.6065661255478728e-16,1
4.082750106476179,-0.016289439976853524,1.376055405699276e-16,1
4.081590101012539,-0.01762503951451166,3.0782745625362455e-16,1
4.082313843137222,-0.017468211759124882,2.642145565950307e-16,1
4.084066890135164,-0.01470669998289385,3.351919747343273e-16,1
4.081346879734733,-0.015153383448606719,5.398410039791606e-16,1
4.081657157616754,-0.015549282053800647,2.574684973014356e-16,1
4.078681640905013,-0.014982057417297408,1.7252694180270141e-16,1
4.075120136693015,-0.015671779993500876,2.267395598763914e-16,1
4.070786580732851,-0.014353207929415962,3.7101671113608736e-16,1
4.066315318311118,-0.0202130217825978,4.252779878134973e-16,1
4.067911518012935,-0.02222449361144584,3.5973706455624064e-16,1
4.069203894010673,-0.02185971324436631,1.881776059098909e-16,1
4.06713981338587,-0.02156891312704732,3.629715936915735e-16,1
4.067689294383818,-0.021578051928251216,3.7021248683710135e-16,1
4.06505705863209,-0.023118662726386255,1.869465477429602e-16,1
4.059794435171209,-0.019789575118609487,1.3544524417560945e-16,1
4.055468979850662,-0.02207793726433998,2.9504939769601516e-16,1
4.050772510033891,-0.02603321894728758,1.894913144218032e-16,1
4.0486308262391,-0.026484018505075084,5.630514008935397e-16,1
4.049373475893637,-0.025839988886872247,2.0152026380044748e-16,1
4.050146751434011,-0.027576834682859246,2.6759944992284206e-16,1
4.051373217787377,-0.02865287653056073,2.5255006952809046e-16,1
4.0498776202712525,-0.028536614964616205,4.790952300787688e-16,1
4.049217503593245,-0.02812449511261319,3.6368768021273535e-16,1
4.0520248597439545,-0.02840393341302765,1.2485252783416598e-16,1
4.051723661221423,-0.028456563284841013,1.562713579030638e-16,1
4.052848915356359,-0.027575001383259325,2.9570715044582927e-16,1
4.056543087468674,-0.023748629134533582,1.1995672148648571e-16,1
4.057913736127685,-0.02278797320640512,5.437202418404183e-16,1
4.057808743122776,-0.02291496561718024,1.7639794971713027e-16,1
4.052075063799288,-0.01486954603996619,2.0671784851587188e-16,1
4.049025173684964,-0.011023044171819391,3.9897967622095275e-16,1
4.048418938912792,-0.011305408579459346,2.102974397375594e-16,1
4.0485107248000896,-0.01144254998983105,2.2331786186830537e-16,1
4.046047702745789,-0.009268464334099943,4.295081462463504e-16,1
4.04897086150633,-0.012971463335898338,2.508563035753538e-16,1
4.049154531940311,-0.012804489326956825,8.448235172889074e-17,1
4.049880975839055,-0.012814331560835779,7.651639536379439e-17,1
4.051513762016225,-0.013496365258145161,1.5763210304696615e-16,1
4.0548225683189045,-0.011544500149704331,1.4447286439347481e-16,1
4.055048744266435,-0.01149959523845932,2.2652698436078927e-16,1
4.053063619792781,-0.013499322133480688,2.4315568465304973e-16,1
4.051052116685811,-0.016335265510665217,3.2466125276335225e-16,1
4.047494249399022,-0.016698577659330967,4.481150969839921e-16,1
4.046096055162255,-0.017517925349219914,3.4543055337052445e-16,1
4.042753072005741,-0.014387976716487593,1.809793315789083e-16,1
4.059353873775338,-0.054577662568985254,1.9579913091666525e-16,1
4.0625248082349215,-0.05477871277802783,1.590142883959063e-16,1
4.059597852867793,-0.05562571433638044,1.6099668433268285e-16,1
4.059402924160299,-0.05563798142161926,2.267135800831624e-16,1
4.057194478546068,-0.05643124304002948,2.9017196424562605e-16,1
4.059448538317512,-0.05561213583709179,4.0517378545912833e-16,1
4.062611842159961,-0.05396532691292332,2.258759057345086e-16,1
4.0621785805318815,-0.054263995121712566,1.5481771684371768e-16,1
4.064186955428694,-0.05325723777269327,1.846606419422331e-16,1
4.06324142486631,-0.05377882296077028,2.408428668962464e-16,1
4.042105802437733,-0.023204459241409525,1.9741402984085173e-16,1
4.0349421188397985,-0.01948263959574514,5.531687543570154e-16,1
4.044935632897788,-0.036960641325729626,3.4986599031732446e-16,1
4.043604381885236,-0.03669475024178596,2.811875781653702e-16,1
4.05245230211869,-0.042917768500104,4.17239005122475e-16,1
4.053093682281969,-0.042937200869472655,1.870793542244251e-16,1
4.053392316213524,-0.04291802927591687,1.782349271606914e-16,1
4.051123912011351,-0.0449104972279297,5.410073931464428e-16,1
4.04819371182997,-0.046013172520708974,3.2957945321473576e-16,1
4.047775682140494,-0.04619415746111682,1.4439321592220968e-16,1
4.054213834261305,-0.04220416643128853,3.2146835101317915e-16,1
4.055894710754854,-0.040827242837191385,1.3255824461560817e-16,1
4.045241770631452,-0.031099748593466047,1.699525053012941e-16,0
4.042498603164978,-0.032126553213211895,1.0837986760526586e-16,0
4.035556833788411,-0.01829508166880148,5.022798798596603e-16,0
4.039648098234864,-0.026665887568776185,1.6158710653425982e-16,0
4.048897367072729,-0.043228866270599534,2.920109106394103e-16,0
4.068971936964019,-0.06249630632199983,3.9725174187757857e-16,0
4.110074507280886,-0.17161765178875343,1.27659914058158e-16,0
4.143915016840227,-0.17848400106976692,2.2039851826728996e-16,0
4.176034332396721,-0.17892561619554956,1.7873244969988876e-16,0
4.215459385982088,-0.17470591908363842,3.311516781243944e-16,0
4.251550178513242,-0.15609448881156676,3.923212126378125e-16,0
4.29281954280069,-0.1333313998192264,1.5340432285729256e-16,0
4.327287970220144,-0.10528351993640603,3.5611265550023736e-16,0
4.363764241372856,-0.08530978564480919,1.402466919080684e-16,0
4.3951281398387625,-0.06106101814738719,1.7438808805455964e-16,0
4.40940237044973,-0.04315345742276453,1.9112995197346177e-16,0
4.3901185303869905,-0.05891385979069577,1.489193758824525e-16,0
4.370853663625701,-0.08023594579529116,5.736018662985283e-16,0
4.3522298315938235,-0.09780777020738138,1.6997042052699279e-16,0
4.327698912518544,-0.11591140094799293,2.8928354422787635e-16,0
4.313643826293521,-0.12479585635520964,1.1374678821649762e-16,0
4.297723250113356,-0.12850798934379215,2.805003727493898e-16,0
4.282242112182193,-0.13388042886744322,1.6155072392976764e-16,0
4.257768609472476,-0.11277489229274444,1.776157163585013e-16,0
4.229793648324292,-0.056277917508347,2.387623729876305e-16,0
4.22027280648517,-0.03660940262220235,6.032609486100083e-16,0
4.210394889421011,-0.039589904778434534,4.4159235561869046e-16,0
4.216177752749005,-0.03704706432038771,2.275833458319684e-16,0
4.2192173718099175,-0.03562628474519034,8.277122146039032e-16,0
4.247303943399657,-0.13671716253264996,2.3736502074738586e-16,0
4.255189330699932,-0.13476439747354846,1.9127775302970687e-16,0
4.247379232316857,-0.139111306724553,2.957791648389482e-16,0
4.240656017975603,-0.14338052557367417,1.92733358853796e-16,0
4.235387529294673,-0.14691500418578576,2.439259121386834e-16,0
4.234413764095833,-0.1476390170466313,5.109245542786911e-16,0
4.22259649245476,-0.15489035069906174,2.5517070412135083e-16,0
4.226300859028035,-0.15234943071093807,2.4550095836680487e-16,0
4.228623871356121,-0.15138626407527261,6.7291358768753735e-16,0
4.221166122875572,-0.1562824193898232,1.4566753158493938e-16,0
4.184640999662784,-0.06520504057275658,1.561681605230469e-16,0
4.162371227679388,-0.045312889485352024,2.857887666423591e-16,0
4.156129138483211,-0.04512580964762933,3.47342145967177e-16,0
4.1533624908812,-0.044922280615240194,2.1444316088895253e-16,0
4.151987047113903,-0.04479039587487224,2.0394599519296504e-16,0
4.14648662106062,-0.04640627603704388,1.8831497945490834e-16,0
4.1438272262223474,-0.04783248660105252,2.1724389211129036e-16,0
4.13038453134895,-0.051499866766068624,1.570235987124414e-16,0
4.111713521756803,-0.03228763982700987,1.923704713551014e-16,0
4.103338653852228,-0.03359096939122304,4.560850611559563e-16,0
4.104687477043867,-0.03321286790996168,2.209190480910586e-16,0
4.103705094563449,-0.033515880978775905,3.4346389011614774e-16,0
4.099871410884098,-0.03225079371729079,4.518666255510825e-16,0
4.092246506264118,-0.028731161825545637,2.7951267701736636e-16,0
4.087905961422159,-0.02071383266337313,2.1542812926091158e-16,0
4.084716346254927,-0.019190150607109314,2.494878137832256e-16,0
4.0822396156123935,-0.01726865017150738,3.1226615874569745e-16,0
4.08115815269066,-0.018936884165128603,1.9319904468547286e-16,0
4.07583302621054,-0.027826022523212857,2.632970040265042e-16,0
4.068689636507833,-0.03748832115588091,2.491826968232446e-16,0
4.0594044632751185,-0.039499696103214764,2.1967839284504852e-16,0
4.052076546901534,-0.04011428433113447,1.7576395083918594e-16,0
4.042636697005622,-0.0403362581033128,4.800954883888362e-16,0
4.0371741417940985,-0.03992690765832275,2.3270845962221596e-16,0
4.025891627767352,-0.032521457625128314,2.410629070566642e-16,0
4.020603204707562,-0.02699171851123797,1.4811228586702384e-16,0
4.0151918177328945,-0.016283333571411936,3.3012264411855847e-16,0
4.014242372920924,-0.014498314337339314,2.7198277365359925e-16,0
4.016166820530613,-0.015117324086121058,5.72558389182417e-16,0
4.017169469944025,-0.013637686736382522,1.1256726203751074e-16,0
4.017499484669128,-0.013507577468653928,2.2096445606986663e-16,0
4.035762299872554,-0.061819653429505926,5.307981614607418e-16,0
4.044663850907953,-0.06177806357446607,2.955351982859103e-16,0
4.047251701639797,-0.06089841619644728,1.6870531454880444e-16,0
4.0498483935039475,-0.05913856226325726,4.863681113272147e-16,0
4.052365019406965,-0.05842902883518968,1.2626103287952558e-16,0
4.051680111491324,-0.05876575601446863,4.452236233607226e-16,0
4.05130511755665,-0.05889754882295343,4.0056631727709314e-16,0
4.05486683017874,-0.05822739891744852,3.9883859479796503e-16,0
4.061581028002844,-0.054864228983860855,2.955291831211459e-16,0
4.064524910482178,-0.05283315850604294,1.8864392475331418e-16,0
4.049548977748637,-0.019505835502648255,4.916453364195936e-16,0
4.045675681513228,-0.01415239483363723,1.8699401451667974e-16,0
4.051339759181377,-0.02183098126357907,3.9835607999481595e-16,0
4.056514547277203,-0.02081102835605509,2.1191407803299528e-16,0
4.064576125347573,-0.031348501379143835,2.6021860905713084e-16,0
4.073776887032421,-0.03155550022646326,4.739443468667236e-16,0
4.083577302751937,-0.03282949423170898,1.5942622108682476e-16,0
4.084606106170996,-0.03235296329618892,1.6814083401682819e-16,0
4.0868448680689715,-0.03171764846435945,4.603270073938796e-16,0
4.087150319813197,-0.0313218643787808,2.403663019012866e-16,0
4.086577785010222,-0.032007682111135916,1.4444719176574094e-16,0
4.085590722495278,-0.03319460566450526,1.4027113899736026e-16,0
4.079015917328049,-0.03622395019738692,1.4751637213733773e-16,0
4.077112443292902,-0.03693606194833751,1.4221985176852175e-16,0
4.062676107821671,-0.040094778963932064,1.8965805554446673e-16,0
4.055097668839381,-0.03641243302614596,1.706232675119655e-16,0
4.0501421430937175,-0.02720406620870166,1.5447180336311253e-16,0
4.0837521844026075,-0.15843175538663537,2.648023083543595e-16,0
4.1172606103166425,-0.20103887158755748,1.5841851039579724e-16,0
4.148179450283815,-0.19998788783781438,4.855324029399593e-16,0
4.158006709622874,-0.19346332690617468,2.818247943260329e-16,1
4.16443797004618,-0.18860748830964838,1.4849532657502511e-16,1
4.172030428324092,-0.18267369232710784,1.5796018121812203e-16,1
4.16947358793429,-0.1848890836211341,1.7637751141072718e-16,1
4.1747912262910285,-0.17988126145132685,1.0959166059262186e-16,1
4.169739536139931,-0.18463991561564658,2.084489872497666e-16,1
4.160629056675882,-0.19247407373630943,8.533280529787598e-17,1
4.117066331643593,-0.17847364211553285,1.0994545016389423e-16,1
4.076606376273007,-0.12195664928700532,1.6905404010383827e-16,1
4.042065206998546,-0.0546815246316238,2.8136465040974377e-16,1
4.027286831536219,-0.04443812197696018,2.909286426598787e-16,1
4.015873772235163,-0.03714663850660884,2.2048811921662042e-16,1
4.001676081008825,-0.021189958337408325,1.523508702138802e-16,1
3.9985521580632213,-0.01872386171525578,2.8829128859599923e-16,1
3.9924674778944134,-0.012314396196101854,1.7771856726602922e-16,1
3.9922429044020276,-0.012376072032158729,2.498419360309716e-16,1
3.990394292960787,-0.013567525032149577,2.2022826568461597e-16,1
3.989895049409017,-0.013625016514991223,2.8907849835119914e-16,1
3.984012717472072,-0.013046920303959032,2.9684216345721444e-16,1
3.981276780693518,-0.012245191374489409,2.1535491784350533e-16,1
3.9799752805132504,-0.011510985127372385,2.6271578364155093e-16,1
3.9796284696216535,-0.011246299203801182,1.520822946664597e-16,1
3.980697935679124,-0.010523003884650524,1.4872386825345653e-16,1
3.9772688755019487,-0.009033326499238527,1.924104211769465e-16,1
3.9760764853337576,-0.009267393236793556,3.0490303952348017e-16,1
3.974192831177314,-0.008538870028574983,4.304581140107679e-16,1
3.9746105795524693,-0.008607519623937411,2.514062024777577e-16,1
3.9731894587014147,-0.007680518164186463,2.6691795497209555e-16,1
3.97432660370947,-0.006149179271888598,4.711850165606184e-16,1
3.9733382350280024,-0.007045432956031755,1.697723884650413e-16,1
3.972376549082749,-0.006589697089957233,1.5590501415135233e-16,1
3.9717874795737274,-0.005416850636191992,2.148514542752755e-16,1
3.9719113020818066,-0.0055751334645709845,1.1888940525428153e-16,1
3.974038551997504,-0.006854079100342413,2.8326423603727283e-16,1
3.9744606360552934,-0.006655702777174783,1.4179346117232952e-16,1
3.9741449838392287,-0.006964810238829599,1.7864402582672386e-16,1
3.9734555303743426,-0.006896242271334494,2.0193534755690252e-16,1
3.9738723205245785,-0.006925897862746265,4.4368520497798555e-16,1
3.974079782914984,-0.006837538118113578,1.6809370933989479e-16,1
3.97433332121703,-0.006458000543526957,2.558641588995646e-16,1
3.9737660404261375,-0.00693101752209888,1.7810864658516077e-16,1
3.971522595574222,-0.00782265331348945,2.2900250935909643e-16,1
3.9709359486107396,-0.007417227081421562,8.899411132358336e-17,1
3.969395038114357,-0.0050554197535930484,1.335736581561843e-16,1
3.971817022551489,-0.009919269260095474,2.52534993644426e-16,1
3.971629077040957,-0.010045103126916269,2.9139450236158357e-16,1
3.970387718668231,-0.010783282192470987,1.9322073138708658e-16,1
3.970183777689083,-0.010690746485222849,7.199058076784215e-16,1
3.971063761560665,-0.011158122735904146,3.636832509333579e-16,1
3.9721725872959213,-0.011079345212583035,1.4728188904077016e-16,1
3.972865190196584,-0.010854771053401525,1.8073830377378858e-16,1
3.9742123488371632,-0.009765965159203185,2.282402758644001e-16,1
3.974768484929349,-0.009865818284408051,1.916459455292367e-16,1
3.976284277731019,-0.010444204324082685,2.347314270633588e-16,1
3.974045331475777,-0.007672340751787158,1.8772759924874578e-16,1
3.9755742286013027,-0.007043860489828179,2.5148144005264984e-16,1
3.978191240286844,-0.004818924956933971,4.876172235673277e-16,1
3.9772228507229554,-0.006256438272104509,2.3088805308367853e-16,1
3.975988104635169,-0.0066168663715947445,2.477784786821237e-16,1
3.9751103211270755,-0.007059410622978692,2.416492425379401e-16,1
3.976093813476352,-0.0073100466188547025,1.4207199313559864e-16,1
3.989627265001794,-0.042141454375032056,1.6942423452374653e-16,1
3.991418627448201,-0.04193055092607656,4.301538998744353e-16,1
3.990923875045755,-0.04203735446578398,1.666078992814763e-16,1
3.991558953364561,-0.04180586515620838,3.4694812411347243e-16,1
3.9917297864828787,-0.04175002031431571,1.5232579271588426e-16,1
3.992666010557198,-0.041633488189206286,1.3232346038698643e-16,1
3.9937823647007735,-0.040965473459975886,2.8911182651630677e-16,1
3.994566176781573,-0.04051613894758228,2.940223511446975e-16,1
3.994944594813463,-0.04026762074253751,2.599773736714618e-16,1
3.9947974165825744,-0.04032349405151892,1.9372107223535854e-16,1
3.981716948478757,-0.007688676121883999,2.8158110452869863e-16,1
3.9808917879037473,-0.006300282237580162,1.4458226024262123e-16,1
3.97955852445378,-0.007239835703183431,3.178397709115247e-16,1
3.9785709486456544,-0.007592411352189245,1.702402572296386e-16,1
3.9764123267241724,-0.009394243172768546,1.7020812955851582e-16,1
4.001219862110524,-0.09310098304133614,2.3176337093875984e-16,1
4.008836279957567,-0.09278451824579093,2.1958066641891917e-16,1
4.018466579997045,-0.09263163189595246,3.517757704295449e-16,1
4.020275928319932,-0.09166957416629273,3.335977712771301e-16,1
4.0189116484326926,-0.09248029091156826,5.540241429660767e-16,1
4.019105094804133,-0.09237264515466752,2.3406341138074924e-16,1
4.01802078885559,-0.09291042823687334,2.0889102967273638e-16,1
4.019853073521581,-0.09190019310477981,4.323785851762321e-16,1
4.019115615085897,-0.09238000743506324,1.7633740183236714e-16,1
4.019173118454265,-0.09233870303484157,1.989008326121205e-16,1
3.9918647840988664,-0.0374443717676901,1.2865214353939136e-16,1
3.9871892914402336,-0.03213124672741504,7.428495889915627e-17,1
3.9864889184441035,-0.03005816770051272,2.837032045241616e-16,1
3.987209614058838,-0.030179350969267278,1.3143307437516072e-16,1
3.98792610143411,-0.029760174072772403,1.3243699655910234e-16,1
3.9866648296344365,-0.0304341054649521,1.3417897708991904e-16,1
3.9877210142871173,-0.030252648377969267,2.042287332060092e-16,1
3.9868358341951633,-0.03042526460958589,4.0224380615680733e-16,1
3.9931261946930254,-0.03139463800434667,2.1093097636009319e-16,1
4.02526689718379,-0.10494730976313085,1.7014949171257443e-16,1
4.071414773347778,-0.20704052745261903,1.8237674379691069e-16,1
4.1102974138929085,-0.21981600271868476,3.2366765811277026e-16,1
4.143435443503095,-0.22325262884047478,2.4669522643958735e-16,1
4.168640720845268,-0.20806065382575606,3.4565066702044626e-16,1
4.181400277743482,-0.19688055578784786,2.372666361345191e-16,0
4.195653366318016,-0.1837603411368913,2.1310668856598952e-16,0
4.2060222223308665,-0.17380698403088424,3.237708873835611e-16,0
4.217075263368473,-0.16256058692087383,2.0107025912358227e-16,0
4.2214277532358775,-0.15811074252360002,1.3151677000966572e-16,0
4.198801480354833,-0.17150205434524918,2.4625126018029103e-16,0
4.157787417169909,-0.1477056177895561,1.8707213801959108e-16,0
4.121982940256793,-0.12669192338671978,9.937931946616266e-17,0
4.091983333226295,-0.06008700823317375,6.265853488901942e-17,0
4.075152682763856,-0.02372861185477953,7.090483116226751e-17,0
4.074128464522783,-0.022809114165170848,1.2916909783039196e-16,0
4.076033062452317,-0.02625495809913553,2.870952701020946e-16,0
4.084482797184425,-0.04109935162456998,4.208331608993861e-16,0
4.0846288769263435,-0.04110648651784119,1.5144330334643606e-16,0
4.087593683889297,-0.040844780269660146,4.370656009499617e-16,0
4.0913835611007565,-0.03978600679728746,1.378298734966264e-16,0
4.101261220292082,-0.03737190966055148,1.419485562540572e-16,0
4.124752661397344,-0.05968438037600158,6.439117887028171e-16,0
4.136247274976004,-0.0610207722787721,1.62272536090892e-16,0
4.146342948144352,-0.05728953179429957,5.033289287086372e-16,0
4.152468415174004,-0.053708838068055806,2.120773218929631e-16,0
4.160620242358819,-0.05453155386930389,2.2242950773265124e-16,0
4.162218886377018,-0.05502830819206981,2.0547384696851134e-16,0
4.1672238881667,-0.05030698920237116,3.0021472378864342e-16,0
4.169044488240734,-0.048214889507939666,1.428445206261878e-16,0
4.167747330623488,-0.05002972739271873,3.1356671381853425e-16,0
4.166970818388129,-0.05059729864058177,1.0072710160138332e-16,0
4.1531605369236715,-0.037634904881758025,9.059631002573156e-17,0
4.1510357828994,-0.035448442398380194,2.6355747947661056e-16,0
4.148741777557151,-0.03470840691290472,2.0027516538715403e-16,0
4.155363221233553,-0.040522188441786414,2.6014591514096465e-16,0
4.149580985766804,-0.03670292732367806,2.575958146457546e-16,0
4.140511753480394,-0.036528762879438105,2.5994316773628653e-16,0
4.141051700159047,-0.03652077079193606,1.2621329924959346e-16,0
4.139540159104816,-0.0377564871098245,1.9522104814948662e-16,0
4.146539369541203,-0.03339241361926007,4.028113466559019e-16,0
4.150688751839292,-0.03335076116436045,2.283254519806844e-16,0
4.147384045487194,-0.03678312223938752,2.0842268827885872e-16,0
4.14092754141366,-0.036751823567965365,2.910385605981342e-16,0
4.13123314480558,-0.04447688405661162,2.4387884301812245e-16,0
4.118685906545618,-0.034215188908740105,3.020442364772531e-16,0
4.112546234738497,-0.03381173439989437,2.6839485398946033e-16,0
4.117319313981827,-0.035056636651130166,2.0683593615979887e-16,0
4.115976450170096,-0.03424153814054482,2.5724745723166113e-16,0
4.118455088857365,-0.03397389912605971,4.538114085800605e-16,0
4.114827227611686,-0.03165231006493483,2.129871688951804e-16,0
4.104467254609965,-0.028193495661724605,2.0052246264640354e-16,0
4.105811302909944,-0.027991170173111674,4.108178361067553e-16,0
4.102457811588641,-0.028923262421658973,1.98019854844054e-16,0
4.10420837842929,-0.026522633285812905,2.349874569167004e-16,0
4.10016958510403,-0.030698343972588523,2.6112535275381847e-16,0
4.09523217612818,-0.03563956836611278,1.8293318209217148e-16,0
4.085600534321983,-0.03266897403662894,5.737477867284378e-16,0
4.080729211111905,-0.028753136336610478,1.5429029607608054e-16,0
4.076190204749793,-0.024036514680136872,1.6068006586566025e-16,0
4.0707899478706215,-0.018908230672677113,9.230137918920223e-17,0
4.068705452852709,-0.020282473083387938,2.2078742755502875e-16,0
4.066825980833762,-0.01691815107181803,1.815242146875334e-16,0
4.065817775030987,-0.016368329844123012,1.1527765924734877e-16,0
4.071016225247863,-0.02442423988447004,1.6199781806258707e-16,0
4.0757378037937695,-0.024721415643992856,1.4310330125900667e-16,0
4.08383231453655,-0.024731558877243386,1.0225687831797091e-16,0
4.0910823159527,-0.02523077168626057,2.2842040142104407e-16,0
4.095231767174382,-0.026904289770959346,1.9944382327930782e-16,0
4.097450386654369,-0.026593110033312606,1.5351111353456334e-16,0
4.099491509098426,-0.024843837640991153,1.0164911453902367e-16,0
4.108719216209851,-0.02049271774047572,1.4867200331896122e-16,0
4.107501891236886,-0.021851444450445824,1.2817097328718652e-16,0
4.109055551040834,-0.019685486405672848,8.383128384888512e-17,0
4.110697325843691,-0.021536218839639534,3.5500072908539325e-16,0
4.110030178601076,-0.02199384718694604,1.193021368805489e-16,0
4.10673867795699,-0.02275784832431283,1.4297262500576507e-16,0
4.1002859681725825,-0.02551217959766001,4.26346666447503e-16,0
4.091183102181097,-0.03065305964834024,2.665645079722973e-16,0
4.086826030646277,-0.031671223575436065,1.6029410204812242e-16,0
4.079982727084754,-0.03770295506063765,1.5097293762614577e-16,0
4.071398291809472,-0.03281082658609042,1.4811274335238524e-16,0
4.07084685808341,-0.03277101530041601,3.2649448309561176e-16,0
4.073391001648213,-0.0347405771635652,3.03491366821132e-16,0
4.0717645393898625,-0.03151729933946695,1.5829561466450251e-16,0
4.066602701423189,-0.032129930979915476,2.4341888833314457e-16,0
4.068658305847024,-0.0339876931263576,1.6870662550329848e-16,0
4.0695794925582085,-0.03384462426031654,8.798014473341999e-17,0
4.10845680739739,-0.15628506819487356,7.797866969472263e-16,0
4.122024680803362,-0.15325569469993833,4.634052708202418e-16,0
4.1261467487030385,-0.15020070108112857,2.588092911305934e-16,0
4.130215424192361,-0.14772392531580586,1.367955225315038e-16,0
4.135781829377741,-0.14494127086883773,1.5012403976343834e-16,0
4.132770612679529,-0.14652864580547284,2.0675597205853356e-16,0
4.129150694581936,-0.14817198310512425,1.934974963910456e-16,0
4.1335625999799355,-0.14518851039047015,1.4739705400579002e-16,0
4.126337841408383,-0.14968090440597184,2.645617866109208e-16,0
4.122411036753928,-0.1523946040810128,1.4868155293182049e-16,0
4.109409372311824,-0.08355736836486893,2.636038169362435e-16,0
4.106089245027963,-0.08083502390715998,1.2598180701561056e-16,0
4.109096464617721,-0.07922769449685757,5.2279886135041395e-16,0
4.10314920689689,-0.08292672163379909,2.3801650683193027e-16,0
4.098467402336526,-0.08346651453064882,1.2827555153007025e-16,0
4.094870981040486,-0.08531585990451011,3.022472621341369e-16,0
4.0945132852346084,-0.08540427887436204,1.6666038810238785e-16,0
4.097419163436975,-0.0850433436991146,3.9088408063150885e-16,1
4.103768726369761,-0.08179720197241584,1.5233581161786237e-16,1
4.110296063337128,-0.0776588806773955,2.1755614943194935e-16,1
4.085711277814419,-0.03600240130894643,1.9392207826752042e-16,1
4.073433438169399,-0.027091850081870247,1.9819968564878655e-16,1
4.104115107612317,-0.13392109681217532,1.906397872465079e-16,1
4.017485512465628,-0.4483349622821248,2.427459644392893e-16,1
4.0390355609327315,-0.42072841623457574,3.064059277356564e-16,1
4.0692841040959085,-0.38438253910184794,4.081296523739167e-16,1
4.069914730772104,-0.3836596706025407,2.1333533471180733e-16,1
4.062622525880891,-0.39199268883298377,1.4356994300170323e-16,1
4.057238132460185,-0.3981269741810101,5.195216524196757e-16,1
4.046972499044641,-0.4096974149494791,2.6979148884548074e-16,1
4.040070738349295,-0.4173736383853949,1.692707099208239e-16,1
4.032797098481921,-0.4254326807617522,1.603474912882375e-16,1
3.9859796263541103,-0.4818425627047297,1.798452986507252e-16,1
4.0607685129529365,-0.35316646461335804,1.7368422806483873e-16,1
4.07047685687454,-0.11439301968714381,2.557172806653872e-16,1
4.044512357835596,-0.07291382929209683,1.1720864215163092e-16,1
4.038811839210206,-0.07188868654808925,1.7889990818921444e-16,1
4.035052237733415,-0.07266268390474172,2.4012054761426413e-16,1
4.029134008018518,-0.07407767922541934,3.42930865636653e-16,1
4.065765495358037,-0.14912294863996356,1.9722779112263568e-16,1
4.077388329417237,-0.14429682170587488,3.5429415207315927e-16,1
4.07926283378293,-0.1428330877843337,2.973028748769531e-16,1
4.073945942944379,-0.14666927326915893,2.5670996814894083e-16,1
4.072258443408035,-0.1478553744134406,1.9076229774015852e-16,1
4.046690335622414,-0.14652391053593133,2.551570305601038e-16,1
4.040762884432694,-0.14905233226231934,3.5004851769457684e-16,1
4.035673663983461,-0.15119152176245731,1.0984800130405109e-16,1
4.030796396660221,-0.1536702525119446,1.3180801714036386e-16,1
4.028610753157816,-0.15479711673444974,1.1647705768399454e-16,1
3.9896084290497438,-0.04061851318062999,1.9181120325901606e-16,1
3.9784921535571085,-0.009998325887255704,1.3563723552497547e-16,1
3.9761182408687206,-0.008955300978014998,1.2395616425492933e-16,1
3.975254783558158,-0.010095070821035786,3.5174103813190636e-16,1
3.972637655679182,-0.010659069997089056,3.350495937042008e-16,1
3.9716542104381007,-0.011471943378467273,2.225779132516254e-16,1
3.969308269810286,-0.011097197837884109,3.3643812558798477e-16,1
3.9677631439592176,-0.010028395071334257,1.5034969723149963e-16,1
3.9675962783886125,-0.010119613279758802,2.409668674318753e-16,1
3.9656173154056478,-0.011100056542651232,2.1013309357935828e-16,1
3.963205165880864,-0.01073267583604976,1.8472676039592555e-16,1
3.960463499264156,-0.005351800039905969,2.382248436263139e-16,1
3.961493437913058,-0.007585490165344344,2.0060132742196014e-16,1
3.962168738120255,-0.007599872989901246,2.256756126613716e-16,1
3.961728316941728,-0.00791214668093203,2.1350887281133332e-16,1
3.9614909899049526,-0.008052659616662069,1.6181927177997171e-16,1
3.962681820107608,-0.008689902968277043,4.470041775404004e-16,1
3.963540658826296,-0.009571022973100586,1.3612026262613046e-16,1
3.9648011874717315,-0.01001785193717195,4.732617637689386e-16,1
3.9662128475670957,-0.008984532544697466,1.6757403878378106e-16,1
3.967999408450667,-0.008126654014638522,9.701792143165925e-17,1
3.9672168037237565,-0.008859012970341031,1.380620151673335e-16,1
3.9673644428217623,-0.009081616407498718,1.3747809521156277e-16,1
3.970983502605819,-0.013725032043680536,1.6885666923466924e-16,1
3.9727903356766747,-0.012532095497356732,1.7818069495422725e-16,1
3.9728086364649275,-0.01250757461050073,2.132025202681128e-16,1
3.971567457614026,-0.013088023631489951,1.606808039224936e-16,1
3.9698313099068385,-0.013457394057349874,3.57390541807077e-16,1
3.969933510102459,-0.013491112408358609,3.9765882207060334e-16,1
3.972372587674572,-0.014626080395596049,2.828376570546296e-16,1
3.9718662778501352,-0.014728431013802945,4.233116413033986e-16,1
3.9724739390444075,-0.014164129692382153,1.139732754114216e-16,1
3.970770515713553,-0.014039856451234742,1.6578319195484468e-16,1
3.9674031986903717,-0.009452068218920159,1.1771789993157002e-16,1
3.966963841372605,-0.009317935218645863,1.699605930445984e-16,1
3.9690689092314404,-0.008945234459762592,2.0806223691919686e-16,1
3.9680422546870378,-0.010369160069940183,2.7094479815808364e-16,1
3.9666539629959394,-0.01218427383843175,1.5859046048811093e-16,1
3.965859161568634,-0.011875642183841786,1.9863718695301058e-16,1
3.965267885158116,-0.010724159058221059,1.2657314198303744e-16,1
3.9662755576137796,-0.01128030839415934,1.7853995005467481e-16,1
3.966763034923748,-0.011175351827994312,3.2118904038517157e-16,1
3.9653145529203657,-0.012281808039449494,2.9786516181095345e-16,1
3.9642779139751654,-0.01246714480580115,1.8721171928138706e-16,1
3.9651805275842302,-0.013006453375829502,1.989204020850375e-16,1
3.9645706739962643,-0.012579732193565257,1.7149295257695616e-16,1
3.9676986785561787,-0.012403191028465621,5.432141696457702e-16,1
3.9693788370379877,-0.010256185197891274,2.2142273183614375e-16,1
3.967837538202255,-0.011558885304768882,7.991482197912281e-17,1
3.9627359442147045,-0.014157990651538012,3.956310171685365e-16,1
3.9622726435423874,-0.013756246648502838,1.0689414540504285e-16,1
3.9615608969304676,-0.013705647277846305,2.0644176609775306e-16,1
3.9636389899112654,-0.013319508283476111,1.593634401967596e-16,1
3.96463297675479,-0.013184525436434679,1.2946036931479842e-16,1
3.9628032905976127,-0.01262436809700572,2.2535951482739197e-16,1
3.9631187364839313,-0.01285721581739233,3.4498657728442737e-16,1
3.962654454641558,-0.012261806117859007,9.9996034037027e-17,1
3.9628006335352404,-0.012263143384625471,8.422163870045291e-17,1
3.96421543144155,-0.011687318034097099,1.9937618299618032e-16,1
3.966057614397821,-0.007398852760129691,1.8548879226018954e-16,1
3.964104321446508,-0.008037610027500888,2.447807495205237e-16,1
3.9652559978421693,-0.008121805845602778,1.686921041273631e-16,1
3.9644201922122404,-0.007957623887915257,2.0905130122724215e-16,1
3.963918026402753,-0.007908823782057445,1.7615253450953789e-16,1
3.9628922769001247,-0.009091286905540123,1.4714057341906847e-16,1
3.960201620081803,-0.009380077688961097,1.3518284301021368e-16,1
3.9592396197642885,-0.008043219161918143,3.724023920978575e-16,1
3.959637155552391,-0.008348397907732378,2.74229877181928e-16,1
3.961316681370777,-0.010795035815791202,1.9325416393282492e-16,0
3.9614106838898837,-0.01071285967874677,3.233404982396087e-16,0
3.962586696024841,-0.010330709061136471,5.415242201113931e-16,0
3.9603362281093824,-0.010694805058622185,2.652464673742705e-16,0
3.9607750574211478,-0.010850335193588684,2.2797136031378874e-16,0
3.9673310164425626,-0.023398001368574492,1.9850759736525946e-16,0
3.9944127581318543,-0.0878771458039375,1.473355427847911e-16,0
4.0235847802316185,-0.11556493452337685,5.916431666143744e-16,0
4.038445725197759,-0.11441011614400003,1.9881707102650755e-16,0
4.0649158012443625,-0.12305568622215118,3.7416472500683857e-16,0
4.08979749303904,-0.12534754285318833,1.471145642338874e-16,0
4.1096842318609665,-0.11458004634552926,1.5597462654143633e-16,0
4.135495996339767,-0.10471570871255002,1.9850196845105631e-16,0
4.163298385852036,-0.08641675061035067,3.165170857816812e-16,0
4.187666331147962,-0.06120326523057452,1.7610023922819998e-16,0
4.200478117120503,-0.039697399668810626,3.100530372953498e-16,0
4.201401499855169,-0.04020539287290977,3.537152002344312e-16,0
4.192225561286577,-0.04144385813038478,2.1476312947330089e-16,0
4.198080839155233,-0.0340107342329341,2.5419780819321134e-16,0
4.186856463789146,-0.039228059588105886,2.6845567761135064e-16,0
4.175507539228407,-0.04172026543154135,1.5977582546587578e-16,0
4.176350349253592,-0.041230146048082894,4.401633688909548e-16,0
4.163774318477608,-0.04478899892486707,3.4590172974308126e-16,0
4.15161020683793,-0.04293776958326398,2.2824963000854305e-16,0
4.14429958768351,-0.03836942657513218,3.243748465583639e-16,0
4.133225369895785,-0.04779120477182628,2.387098274411465e-16,0
4.115946712091347,-0.03903930717044412,2.580552582259552e-16,0
4.112875033119869,-0.03775722688835085,2.7119589182408514e-16,0
4.1039160226294475,-0.03266782553842072,2.326524871430688e-16,0
4.10813288004578,-0.036912084754322345,1.7997575012008876e-16,0
4.102421439939303,-0.03969195336573065,1.2631128929567515e-16,0
4.093109663832389,-0.03634000494653713,2.088838768782066e-16,0
4.091459101767757,-0.036645968578571296,5.109858106201633e-16,0
4.0870023256138825,-0.037692820692818645,2.7141659639544707e-16,0
4.077577277498681,-0.03576020818025179,4.871820239296336e-16,0
4.075368466800591,-0.03820238368511548,4.484773176436222e-16,0
4.074600915184733,-0.0386636473254452,1.604518131775789e-16,0
4.072178091475673,-0.03666078891087113,1.4424506943329855e-16,0
4.0769787997729825,-0.040743748046306455,2.0167508760470864e-16,0
4.069392851975413,-0.028866772420099128,2.468161483467926e-16,0
4.068694545946107,-0.029200017447394484,5.127868703547719e-16,0
4.067249809813056,-0.029723453184069996,3.756971305041847e-16,0
4.063878502042399,-0.030187465639102514,2.711339679541186e-16,0
4.061369621794453,-0.03148246707159669,2.623122315685302e-16,0
4.067859071338777,-0.0335751330044032,1.8039209742606423e-16,0
4.077578909342399,-0.03333019529984221,3.7784332566504883e-16,0
4.081066412810144,-0.03188102797578764,2.740983491898317e-16,0
4.080223200062301,-0.03170900503498266,1.6236220948309895e-16,0
4.073093599513923,-0.026976088406890267,3.9981969629859093e-16,0
4.079711477167189,-0.036377612509484104,2.2363964933005715e-16,0
4.086891105887721,-0.03711873258504276,2.4745405761594763e-16,0
4.08795995040887,-0.03620421376654646,3.4809839306513706e-16,0
4.088688722977826,-0.035424420514965235,1.761502759633933e-16,0
4.094976152785778,-0.030589920478233043,2.1107108417480167e-16,0
