emg1,emg2,emg3
4.496579,0.210166,0.166178
4.501466,0.205279,0.166178
4.501466,0.195503,0.161290
4.501466,0.185728,0.166178
4.496579,1.226784,0.161290
4.496579,0.542522,0.156403
4.501466,0.317693,0.156403
4.496579,0.234604,0.156403
4.501466,0.830890,0.166178
4.501466,1.319648,0.156403
4.496579,0.689150,0.166178
4.501466,0.347019,0.161290
4.501466,0.229717,0.156403
4.496579,0.234604,0.161290
4.496579,0.190616,0.171065
4.496579,0.210166,0.161290
4.496579,0.200391,0.161290
4.501466,0.171065,0.161290
4.501466,0.166178,0.156403
4.501466,0.151515,0.166178
2.981427,0.141740,0.166178
1.510264,0.131965,0.156403
0.811339,0.136852,0.156403
0.464321,0.146628,0.190616
0.298143,0.141740,0.215054
0.298143,0.146628,0.205279
0.190616,0.146628,0.175953
0.185728,0.136852,0.161290
0.386119,0.136852,0.156403
0.654936,0.136852,0.151515
0.845552,0.141740,0.156403
0.826002,0.136852,0.156403
0.865103,0.136852,0.156403
0.953079,0.146628,0.200391
0.860215,0.136852,0.175953
0.801564,0.131965,0.166178
0.752688,0.131965,0.166178
0.928641,0.131965,0.166178
0.894428,0.131965,0.180841
1.065494,0.131965,0.161290
1.011730,0.136852,0.195503
0.830890,0.141740,0.180841
0.884653,0.136852,0.161290
0.845552,0.136852,0.166178
0.723363,0.136852,0.161290
0.591398,0.131965,0.156403
0.410557,0.131965,0.156403
0.586510,0.131965,0.151515
0.351906,0.136852,0.156403
0.293255,0.136852,0.151515
0.337243,0.131965,0.146628
0.293255,0.131965,0.151515
0.224829,0.127077,0.146628
0.171065,0.131965,0.146628
0.146628,0.131965,0.156403
0.141740,0.127077,0.146628
0.141740,0.136852,0.151515
0.141740,0.131965,0.151515
0.146628,0.131965,0.146628
0.141740,0.131965,0.146628
0.141740,0.131965,0.151515
0.141740,0.136852,0.146628
0.185728,0.136852,0.151515
0.298143,0.131965,0.146628
0.298143,0.131965,0.151515
0.391007,0.537634,0.303030
0.381232,1.217009,0.449658
0.816227,1.417400,0.395894
0.508309,0.874878,0.259042
0.405670,0.415445,0.200391
0.425220,0.224829,0.166178
0.620723,0.175953,0.161290
0.703812,0.151515,0.161290
0.493646,0.151515,0.156403
0.493646,0.141740,0.156403
0.356794,0.131965,0.151515
0.478983,0.131965,0.146628
0.351906,0.131965,0.146628
0.312805,0.131965,0.151515
0.503421,0.131965,0.151515
0.474096,0.356794,0.175953
0.620723,0.943304,0.268817
0.801564,1.026393,0.322581
0.889541,0.674487,0.224829
1.173021,0.361681,0.185728
0.728250,0.205279,0.166178
0.610948,0.180841,0.156403
0.767351,0.195503,0.185728
0.738025,0.175953,0.161290
0.474096,0.156403,0.156403
0.469208,0.141740,0.151515
0.356794,0.136852,0.151515
0.513196,0.141740,0.156403
0.439883,0.131965,0.151515
0.498534,0.136852,0.146628
0.439883,0.635386,0.229717
0.542522,1.749756,0.483871
1.060606,1.827957,0.557185
1.070381,0.865103,0.342131
0.796676,0.386119,0.215054
0.620723,0.234604,0.171065
0.620723,0.180841,0.161290
0.694037,0.151515,0.166178
0.464321,0.146628,0.151515
0.522972,0.156403,0.156403
0.400782,0.146628,0.151515
0.410557,0.161290,0.151515
0.366569,0.244379,0.156403
0.322581,0.757576,0.381232
0.508309,1.275660,0.444770
0.742913,0.777126,0.293255
0.830890,0.386119,0.215054
1.001955,0.278592,0.195503
0.869990,0.254154,0.175953
0.684262,0.210166,0.156403
0.439883,0.166178,0.156403
0.586510,0.151515,0.156403
0.488759,0.141740,0.161290
0.527859,0.131965,0.156403
0.449658,0.131965,0.156403
0.332356,0.141740,0.156403
0.405670,0.537634,0.205279
0.483871,1.114370,0.454545
0.752688,1.021505,0.337243
0.420332,0.684262,0.259042
0.566960,0.322581,0.200391
0.532747,0.229717,0.180841
0.674487,0.166178,0.166178
0.640274,0.156403,0.161290
0.386119,0.151515,0.156403
0.361681,0.136852,0.156403
0.356794,0.131965,0.151515
0.307918,0.136852,0.156403
0.342131,0.195503,0.156403
0.337243,0.337243,0.195503
0.562072,1.226784,0.464321
0.557185,1.001955,0.307918
0.552297,0.488759,0.215054
0.625611,0.283480,0.185728
1.055718,0.244379,0.175953
0.772239,0.195503,0.166178
0.483871,0.156403,0.166178
0.498534,0.131965,0.156403
0.547410,0.141740,0.151515
0.361681,0.131965,0.156403
0.439883,0.136852,0.156403
0.347019,0.136852,0.161290
0.273705,0.444770,0.185728
0.454545,0.835777,0.361681
0.610948,1.031281,0.430108
1.021505,0.620723,0.263930
0.845552,0.342131,0.200391
0.889541,0.249267,0.185728
0.772239,0.166178,0.175953
0.483871,0.151515,0.161290
0.527859,0.141740,0.156403
0.454545,0.136852,0.156403
0.532747,0.131965,0.161290
0.684262,0.127077,0.156403
0.464321,0.136852,0.161290
0.728250,0.391007,0.215054
1.217009,1.392962,0.498534
1.339198,1.085044,0.459433
0.977517,0.483871,0.263930
0.601173,0.288368,0.205279
0.620723,0.190616,0.166178
0.581623,0.151515,0.166178
0.571848,0.136852,0.161290
0.405670,0.141740,0.161290
0.361681,0.136852,0.156403
0.562072,0.131965,0.161290
0.317693,0.190616,0.161290
0.371457,0.171065,0.156403
0.566960,0.449658,0.263930
0.630499,0.928641,0.332356
0.547410,0.698925,0.263930
0.566960,0.322581,0.195503
0.537634,0.219941,0.171065
0.439883,0.161290,0.161290
0.425220,0.151515,0.161290
0.459433,0.136852,0.151515
0.562072,0.136852,0.156403
0.469208,0.136852,0.156403
0.474096,0.146628,0.156403
0.498534,0.234604,0.166178
0.386119,0.762463,0.298143
0.518084,1.089932,0.410557
0.733138,0.757576,0.317693
0.571848,0.361681,0.219941
0.596285,0.234604,0.190616
0.957967,0.175953,0.175953
0.909091,0.166178,0.166178
0.664712,0.146628,0.161290
0.684262,0.136852,0.156403
0.508309,0.141740,0.161290
0.503421,0.171065,0.254154
0.420332,0.459433,0.371457
0.410557,1.510264,1.275660
0.434995,1.862170,2.722385
0.850440,0.977517,1.632454
1.011730,0.420332,0.630499
0.654936,0.244379,0.307918
1.246334,0.215054,0.210166
1.187683,0.166178,0.171065
1.129032,0.161290,0.161290
0.703812,0.146628,0.156403
0.752688,0.136852,0.151515
0.806452,0.131965,0.156403
0.547410,0.136852,0.156403
0.615836,1.236559,0.850440
0.434995,1.656891,2.653959
0.826002,1.207234,1.720430
0.728250,0.493646,0.659824
0.527859,0.263930,0.322581
0.708700,0.190616,0.205279
0.972630,0.166178,0.175953
0.928641,0.141740,0.161290
0.821114,0.141740,0.166178
0.576735,0.136852,0.151515
0.689150,0.136852,0.151515
0.928641,0.136852,0.156403
0.650049,0.229717,0.219941
0.542522,1.823069,1.798631
0.703812,2.062561,2.013685
0.752688,0.796676,0.816227
1.016618,0.361681,0.371457
1.129032,0.224829,0.224829
1.089932,0.171065,0.180841
1.192571,0.156403,0.161290
0.928641,0.141740,0.156403
1.006843,0.151515,0.156403
0.957967,0.136852,0.156403
0.786901,0.146628,0.151515
0.659824,0.527859,0.522972
0.537634,1.783969,1.994135
0.718475,2.272727,2.722385
0.493646,0.913978,1.065494
0.728250,0.386119,0.459433
0.654936,0.219941,0.259042
1.304985,0.185728,0.190616
1.637341,0.156403,0.171065
1.520039,0.146628,0.161290
1.192571,0.141740,0.161290
0.957967,0.136852,0.156403
0.698925,0.131965,0.156403
0.694037,0.131965,0.151515
0.674487,0.219941,0.249267
0.532747,1.656891,1.378299
0.708700,1.583578,1.407625
0.576735,0.625611,0.635386
0.938416,0.356794,0.400782
0.728250,0.200391,0.234604
1.246334,0.166178,0.180841
0.948192,0.146628,0.166178
1.011730,0.136852,0.156403
0.894428,0.141740,0.156403
0.904203,0.131965,0.156403
0.620723,0.547410,0.322581
0.439883,2.082111,1.358749
0.615836,1.524927,1.461388
0.601173,0.889541,0.943304
0.850440,0.405670,0.522972
0.615836,0.224829,0.273705
1.251222,0.205279,0.195503
0.987292,0.161290,0.171065
0.850440,0.136852,0.161290
0.640274,0.136852,0.156403
1.001955,0.136852,0.156403
0.796676,0.131965,0.156403
0.542522,0.513196,0.801564
0.508309,1.691105,1.730205
0.654936,1.182796,2.214076
0.904203,0.493646,0.826002
0.645161,0.249267,0.376344
0.444770,0.175953,0.229717
0.948192,0.156403,0.175953
0.913978,0.141740,0.161290
0.752688,0.136852,0.161290
0.713587,0.131965,0.156403
0.620723,0.127077,0.156403
0.650049,0.136852,0.161290
0.430108,0.444770,0.454545
0.591398,1.256109,1.652004
0.571848,0.650049,0.821114
0.464321,0.430108,0.454545
0.581623,0.229717,0.249267
0.801564,0.166178,0.185728
0.796676,0.156403,0.166178
0.508309,0.141740,0.161290
0.899316,0.131965,0.156403
0.821114,0.131965,0.156403
0.557185,0.131965,0.156403
0.542522,0.215054,0.249267
0.386119,1.300098,0.845552
0.332356,1.485826,1.652004
0.371457,0.664712,0.723363
0.469208,0.312805,0.347019
0.444770,0.190616,0.219941
0.811339,0.171065,0.175953
0.645161,0.146628,0.161290
0.816227,0.136852,0.156403
0.620723,0.136852,0.156403
0.474096,0.131965,0.151515
0.596285,0.131965,0.156403
0.371457,0.175953,0.161290
0.391007,0.953079,1.094819
0.664712,1.388074,1.705767
0.542522,0.713587,1.275660
0.434995,0.420332,0.576735
0.464321,0.224829,0.293255
0.757576,0.175953,0.200391
0.874878,0.161290,0.175953
0.879765,0.141740,0.161290
0.762463,0.131965,0.156403
0.669599,0.131965,0.156403
0.464321,0.156403,0.156403
0.410557,0.596285,0.185728
0.283480,1.202346,0.195503
0.303030,2.458456,0.503421
0.469208,1.686217,0.293255
0.303030,1.109482,0.210166
0.263930,0.508309,0.175953
0.522972,0.303030,0.161290
1.314761,0.200391,0.171065
1.187683,0.175953,0.166178
0.733138,0.146628,0.161290
0.591398,0.136852,0.156403
0.410557,0.474096,0.156403
0.268817,2.067449,0.317693
0.366569,2.399804,0.386119
0.703812,1.813294,0.273705
0.513196,1.329423,0.229717
0.361681,0.532747,0.175953
0.596285,0.278592,0.175953
0.869990,0.185728,0.171065
0.723363,0.151515,0.161290
0.454545,0.136852,0.156403
0.796676,0.136852,0.156403
0.576735,0.131965,0.146628
0.430108,0.131965,0.156403
0.283480,1.451613,0.195503
0.342131,3.313783,0.322581
0.332356,2.072336,0.273705
0.293255,1.070381,0.195503
0.606061,0.444770,0.171065
0.791789,0.259042,0.166178
0.992180,0.190616,0.161290
1.358749,0.161290,0.166178
0.928641,0.141740,0.161290
0.752688,0.131965,0.156403
0.601173,0.131965,0.156403
0.400782,0.625611,0.175953
0.273705,1.114370,0.254154
0.249267,2.062561,0.454545
0.386119,1.446725,0.298143
0.263930,0.742913,0.195503
0.566960,0.386119,0.175953
0.694037,0.229717,0.166178
1.089932,0.195503,0.171065
0.948192,0.156403,0.161290
0.762463,0.136852,0.156403
0.811339,0.136852,0.156403
0.821114,0.131965,0.156403
0.381232,1.524927,0.259042
0.273705,4.491691,0.571848
0.298143,4.222874,0.547410
0.366569,1.510264,0.288368
0.356794,0.586510,0.200391
0.249267,0.278592,0.166178
1.104594,0.200391,0.190616
1.055718,0.156403,0.171065
0.928641,0.141740,0.161290
0.664712,0.136852,0.161290
0.777126,0.131965,0.156403
0.420332,1.011730,0.229717
0.303030,1.798631,0.454545
0.366569,2.614858,0.464321
0.351906,1.583578,0.278592
0.669599,0.620723,0.195503
1.339198,0.303030,0.185728
1.016618,0.200391,0.166178
1.353861,0.151515,0.161290
1.192571,0.136852,0.156403
0.972630,0.136852,0.156403
0.909091,0.131965,0.156403
0.713587,0.141740,0.156403
0.366569,2.223851,0.342131
0.307918,3.763441,0.586510
0.459433,2.986315,0.405670
0.342131,1.598240,0.254154
0.430108,0.620723,0.185728
0.728250,0.298143,0.166178
0.928641,0.190616,0.166178
0.835777,0.151515,0.161290
0.865103,0.141740,0.156403
0.571848,0.131965,0.156403
0.420332,0.131965,0.156403
0.386119,0.166178,0.156403
0.283480,1.114370,0.224829
0.542522,2.717498,0.493646
0.478983,1.964809,0.303030
0.434995,1.397849,0.210166
0.400782,0.552297,0.171065
0.698925,0.273705,0.175953
0.738025,0.185728,0.161290
1.270772,0.151515,0.166178
1.104594,0.136852,0.156403
0.977517,0.131965,0.156403
0.894428,0.136852,0.156403
0.938416,0.136852,0.156403
0.503421,0.386119,0.161290
0.283480,4.139785,0.395894
0.288368,3.822092,0.522972
0.405670,1.642229,0.288368
0.376344,0.620723,0.200391
0.522972,0.298143,0.171065
1.231672,0.195503,0.171065
1.407625,0.185728,0.175953
2.199413,0.161290,0.200391
1.485826,0.141740,0.166178
1.647116,0.141740,0.166178
1.055718,0.175953,0.156403
1.275660,0.166178,0.166178
0.728250,0.303030,0.175953
0.913978,1.070381,0.351906
1.094819,0.884653,0.312805
1.226784,0.606061,0.298143
1.085044,0.449658,0.263930
1.119257,0.259042,0.195503
0.982405,0.180841,0.166178
1.075269,0.156403,0.161290
1.001955,0.141740,0.156403
0.869990,0.141740,0.156403
0.508309,0.146628,0.156403
0.425220,0.273705,0.175953
0.645161,0.630499,0.195503
0.522972,1.114370,0.239492
0.742913,0.620723,0.210166
0.679374,0.415445,0.195503
0.659824,0.229717,0.171065
1.422287,0.166178,0.180841
1.348974,0.156403,0.166178
1.388074,0.141740,0.161290
1.143695,0.141740,0.161290
0.869990,0.136852,0.156403
0.684262,0.327468,0.185728
0.434995,0.405670,0.215054
0.293255,1.060606,0.322581
0.933529,0.698925,0.312805
0.698925,0.420332,0.239492
0.752688,0.249267,0.200391
0.913978,0.175953,0.171065
1.373412,0.156403,0.171065
1.739980,0.151515,0.171065
1.705767,0.136852,0.166178
1.256109,0.136852,0.161290
0.640274,0.244379,0.171065
0.371457,0.395894,0.205279
0.478983,1.344086,0.337243
0.782014,1.094819,0.410557
0.913978,0.620723,0.293255
0.889541,0.303030,0.205279
1.168133,0.200391,0.185728
1.593353,0.166178,0.185728
1.852395,0.151515,0.171065
1.153470,0.136852,0.166178
1.270772,0.136852,0.166178
0.865103,0.161290,0.156403
0.488759,0.307918,0.210166
0.625611,0.997067,0.263930
0.576735,1.089932,0.322581
0.640274,0.718475,0.298143
0.894428,0.527859,0.244379
0.596285,0.268817,0.195503
1.226784,0.185728,0.185728
1.124145,0.161290,0.175953
2.013685,0.156403,0.185728
1.612903,0.156403,0.175953
0.816227,0.141740,0.166178
1.094819,0.136852,0.161290
0.537634,0.131965,0.156403
0.537634,0.249267,0.166178
0.478983,1.212121,0.454545
0.620723,1.016618,0.327468
0.913978,0.865103,0.307918
0.713587,0.430108,0.219941
0.596285,0.229717,0.180841
0.796676,0.166178,0.161290
0.708700,0.146628,0.156403
0.366569,0.136852,0.156403
0.620723,0.136852,0.156403
0.405670,0.136852,0.151515
0.293255,0.131965,0.151515
0.351906,0.136852,0.156403
0.244379,0.259042,0.156403
0.361681,1.045943,0.351906
0.874878,0.801564,0.298143
0.855327,0.522972,0.239492
0.684262,0.381232,0.205279
0.596285,0.215054,0.171065
0.811339,0.166178,0.166178
0.997067,0.146628,0.166178
0.865103,0.136852,0.151515
0.850440,0.136852,0.156403
0.650049,0.136852,0.161290
0.395894,0.351906,0.244379
0.351906,0.381232,0.219941
0.454545,1.080156,0.395894
0.625611,0.962854,0.410557
0.698925,0.718475,0.298143
0.615836,0.347019,0.205279
0.664712,0.210166,0.175953
1.226784,0.166178,0.161290
1.500489,0.151515,0.161290
1.314761,0.141740,0.161290
0.992180,0.136852,0.156403
0.933529,0.136852,0.156403
0.747801,0.136852,0.166178
0.664712,0.200391,0.166178
0.425220,1.075269,0.288368
1.207234,0.943304,0.356794
0.860215,0.772239,0.371457
1.212121,0.527859,0.322581
0.865103,0.273705,0.210166
1.353861,0.195503,0.180841
1.358749,0.156403,0.166178
1.226784,0.141740,0.166178
1.290323,0.131965,0.161290
0.899316,0.136852,0.166178
0.650049,0.136852,0.161290
0.610948,0.263930,0.278592
0.581623,0.684262,0.376344
1.187683,0.796676,0.356794
1.094819,0.684262,0.332356
1.544477,0.503421,0.278592
1.070381,0.288368,0.200391
1.001955,0.190616,0.180841
1.456500,0.171065,0.171065
2.409580,0.151515,0.175953
1.911046,0.141740,0.161290
1.446725,0.136852,0.161290
1.407625,0.146628,0.185728
1.265885,0.141740,0.288368
1.163245,0.136852,0.200391
0.948192,0.136852,0.234604
0.552297,0.889541,0.283480
0.865103,3.695015,0.860215
0.679374,4.027370,1.168133
0.918866,3.553275,0.967742
0.698925,1.270772,0.434995
0.571848,0.513196,0.244379
1.368524,0.283480,0.239492
1.158358,0.200391,0.190616
1.446725,0.161290,0.185728
0.982405,0.151515,0.171065
1.207234,0.146628,0.190616
0.879765,0.141740,0.171065
1.251222,0.141740,0.166178
0.606061,0.136852,0.156403
0.488759,0.131965,0.156403
0.488759,0.131965,0.151515
0.293255,0.131965,0.156403
0.268817,0.131965,0.156403
0.244379,0.131965,0.156403
0.180841,0.146628,0.166178
0.215054,0.166178,0.215054
0.195503,0.185728,0.268817
0.219941,0.185728,0.356794
0.342131,0.190616,0.307918
0.410557,0.175953,0.259042
0.645161,0.146628,0.195503
0.620723,0.136852,0.175953
0.811339,0.141740,0.185728
1.138807,0.146628,0.205279
0.992180,0.205279,0.234604
0.987292,0.200391,0.200391
0.987292,0.185728,0.239492
0.977517,0.166178,0.205279
0.977517,0.151515,0.180841
0.972630,0.156403,0.180841
0.967742,0.141740,0.175953
0.977517,0.224829,0.200391
1.016618,0.747801,0.180841
1.251222,3.118280,1.456500
1.392962,4.496579,0.630499
1.436950,4.496579,1.011730
1.480938,4.496579,1.759531
1.461388,4.496579,0.723363
1.505376,4.496579,1.827957
1.588465,4.496579,4.501466
1.593353,4.501466,4.506354
1.603128,4.501466,4.506354
1.603128,4.496579,4.501466
1.461388,3.792766,1.676442
1.168133,1.339198,0.640274
1.036168,0.537634,0.312805
0.982405,0.273705,0.205279
0.977517,0.175953,0.175953
0.977517,0.156403,0.161290
0.972630,0.156403,0.156403
0.972630,0.146628,0.156403
0.967742,0.141740,0.151515
