emg1,emg2,emg3
1.505376,0.185728,0.185728
1.300098,0.180841,0.171065
0.948192,0.161290,0.156403
0.801564,0.151515,0.156403
0.957967,0.141740,0.156403
1.060606,0.141740,0.151515
0.840665,0.136852,0.151515
0.948192,0.136852,0.156403
0.767351,0.141740,0.166178
0.782014,0.146628,0.161290
0.703812,0.136852,0.151515
0.713587,0.136852,0.156403
0.542522,0.136852,0.151515
0.835777,0.136852,0.156403
0.845552,0.136852,0.156403
0.840665,0.136852,0.156403
0.801564,0.136852,0.151515
0.835777,0.146628,0.156403
0.757576,0.136852,0.156403
0.855327,0.136852,0.151515
0.718475,0.136852,0.146628
0.713587,0.136852,0.151515
0.772239,0.136852,0.151515
1.358749,0.151515,0.175953
0.542522,0.136852,0.156403
0.557185,0.141740,0.166178
0.601173,0.141740,0.156403
0.557185,0.131965,0.151515
0.640274,0.136852,0.151515
0.356794,0.131965,0.151515
0.400782,0.136852,0.146628
0.430108,0.136852,0.151515
0.620723,0.136852,0.146628
0.586510,0.131965,0.146628
0.518084,0.131965,0.151515
0.513196,0.131965,0.151515
0.439883,0.131965,0.151515
0.410557,0.131965,0.151515
0.488759,0.131965,0.151515
0.547410,0.131965,0.151515
0.650049,0.136852,0.156403
0.694037,0.131965,0.156403
0.454545,0.136852,0.151515
0.405670,0.136852,0.151515
0.376344,0.131965,0.151515
0.405670,0.131965,0.146628
0.459433,0.136852,0.146628
0.547410,0.136852,0.151515
0.547410,0.131965,0.146628
0.752688,0.141740,0.151515
0.591398,0.141740,0.156403
0.615836,0.141740,0.166178
0.562072,0.136852,0.161290
0.845552,0.131965,0.156403
0.654936,0.136852,0.161290
0.645161,0.141740,0.161290
0.351906,0.136852,0.151515
0.244379,0.141740,0.151515
0.200391,0.131965,0.146628
0.180841,0.136852,0.146628
0.161290,0.136852,0.151515
0.185728,0.131965,0.146628
0.166178,0.131965,0.146628
0.175953,0.136852,0.151515
0.224829,0.131965,0.151515
0.190616,0.131965,0.151515
0.205279,0.131965,0.156403
0.395894,0.136852,0.156403
0.332356,0.136852,0.156403
0.654936,0.166178,0.171065
0.439883,0.175953,0.180841
0.518084,0.151515,0.166178
0.303030,0.136852,0.151515
0.278592,0.146628,0.166178
0.215054,0.146628,0.166178
0.195503,0.146628,0.161290
0.166178,0.136852,0.146628
0.224829,0.166178,0.156403
0.420332,0.190616,0.156403
0.234604,0.156403,0.151515
0.185728,0.141740,0.146628
0.175953,0.146628,0.156403
0.210166,0.141740,0.161290
0.180841,0.146628,0.156403
0.171065,0.136852,0.146628
0.151515,0.151515,0.151515
0.156403,0.175953,0.151515
0.185728,0.156403,0.151515
0.180841,0.146628,0.151515
0.210166,0.146628,0.166178
0.175953,0.146628,0.156403
0.156403,0.141740,0.146628
0.156403,0.175953,0.166178
0.171065,0.219941,0.156403
0.151515,0.166178,0.156403
0.205279,0.146628,0.151515
0.215054,0.146628,0.156403
0.175953,0.166178,0.166178
0.166178,0.151515,0.156403
0.156403,0.151515,0.151515
0.283480,0.180841,0.156403
0.195503,0.180841,0.156403
0.166178,0.146628,0.146628
0.175953,0.151515,0.156403
0.180841,0.141740,0.156403
0.224829,0.146628,0.156403
0.195503,0.136852,0.156403
0.171065,0.166178,0.161290
0.200391,0.180841,0.171065
0.200391,0.166178,0.161290
0.175953,0.146628,0.151515
0.200391,0.146628,0.175953
0.215054,0.156403,0.171065
0.239492,0.151515,0.161290
0.185728,0.146628,0.156403
0.185728,0.156403,0.156403
0.180841,0.156403,0.156403
0.156403,0.141740,0.161290
0.200391,0.136852,0.156403
0.195503,0.136852,0.156403
0.161290,0.151515,0.151515
0.166178,0.141740,0.156403
0.171065,0.166178,0.151515
0.205279,0.210166,0.156403
0.161290,0.161290,0.156403
0.180841,0.146628,0.156403
0.229717,0.151515,0.161290
0.219941,0.141740,0.156403
0.190616,0.146628,0.161290
0.156403,0.175953,0.151515
0.185728,0.205279,0.166178
0.224829,0.171065,0.156403
0.175953,0.141740,0.151515
0.591398,0.156403,0.146628
0.400782,0.151515,0.146628
0.620723,0.151515,0.146628
0.762463,0.239492,0.151515
0.889541,0.263930,0.151515
0.816227,0.180841,0.146628
0.425220,0.166178,0.151515
0.234604,0.351906,0.332356
0.185728,0.224829,0.210166
0.669599,0.175953,0.171065
1.202346,0.175953,0.156403
0.928641,0.151515,0.151515
0.630499,0.151515,0.146628
0.322581,0.200391,0.229717
0.200391,0.219941,0.263930
0.171065,0.166178,0.210166
1.177908,0.161290,0.171065
1.456500,0.195503,0.161290
0.928641,0.166178,0.151515
0.620723,0.151515,0.151515
0.366569,0.146628,0.146628
0.219941,0.239492,0.283480
0.166178,0.327468,0.400782
0.175953,0.205279,0.239492
0.782014,0.175953,0.175953
1.075269,0.185728,0.156403
0.757576,0.161290,0.156403
0.904203,0.161290,0.151515
0.395894,0.151515,0.146628
0.224829,0.278592,0.337243
0.175953,0.215054,0.234604
0.703812,0.175953,0.175953
1.001955,0.166178,0.161290
1.436950,0.219941,0.151515
0.894428,0.190616,0.146628
0.620723,0.156403,0.151515
0.317693,0.175953,0.205279
0.205279,0.420332,0.395894
0.239492,0.254154,0.234604
1.202346,0.185728,0.175953
1.270772,0.210166,0.156403
0.801564,0.161290,0.156403
0.557185,0.166178,0.146628
0.400782,0.180841,0.151515
0.415445,0.175953,0.175953
0.239492,0.449658,0.288368
0.175953,0.351906,0.293255
1.148583,0.229717,0.195503
0.913978,0.249267,0.171065
0.821114,0.337243,0.156403
0.913978,0.210166,0.156403
0.674487,0.190616,0.146628
0.342131,0.171065,0.146628
0.219941,0.361681,0.395894
0.190616,0.224829,0.234604
0.884653,0.234604,0.175953
0.713587,0.210166,0.156403
0.503421,0.166178,0.146628
0.278592,0.156403,0.146628
0.263930,0.146628,0.146628
0.395894,0.141740,0.151515
0.972630,0.190616,0.151515
0.557185,0.205279,0.151515
0.303030,0.347019,0.430108
0.625611,0.244379,0.283480
1.378299,0.337243,0.190616
1.265885,0.283480,0.166178
1.011730,0.219941,0.156403
1.168133,0.210166,0.151515
0.601173,0.210166,0.151515
0.312805,0.259042,0.200391
0.219941,0.298143,0.273705
1.109482,0.332356,0.195503
1.730205,0.215054,0.166178
1.207234,0.239492,0.166178
0.586510,0.175953,0.156403
0.571848,0.205279,0.171065
0.288368,0.694037,0.474096
0.263930,0.347019,0.254154
0.850440,0.205279,0.180841
1.187683,0.180841,0.161290
0.913978,0.166178,0.156403
0.718475,0.146628,0.156403
0.557185,0.156403,0.151515
0.278592,0.171065,0.410557
0.185728,0.190616,0.337243
0.391007,0.151515,0.210166
1.050831,0.293255,0.175953
0.923754,0.215054,0.156403
0.650049,0.175953,0.151515
0.439883,0.151515,0.151515
0.259042,0.146628,0.151515
0.185728,0.185728,0.268817
0.161290,0.185728,0.293255
0.601173,0.156403,0.195503
0.684262,0.151515,0.166178
1.241447,0.146628,0.156403
0.752688,0.151515,0.156403
0.566960,0.141740,0.151515
0.391007,0.151515,0.151515
0.219941,0.205279,0.288368
0.166178,0.175953,0.205279
1.197458,0.166178,0.171065
1.143695,0.175953,0.156403
1.070381,0.263930,0.151515
0.762463,0.180841,0.151515
0.806452,0.161290,0.151515
0.459433,0.200391,0.185728
0.249267,0.268817,0.342131
0.518084,0.185728,0.215054
1.260997,0.175953,0.215054
1.583578,0.175953,0.210166
1.559140,0.166178,0.200391
1.544477,0.185728,0.175953
1.265885,0.205279,0.195503
0.943304,0.156403,0.171065
0.806452,0.303030,0.166178
0.361681,0.874878,0.200391
0.215054,0.620723,0.488759
0.718475,0.307918,0.278592
1.412512,0.215054,0.234604
1.329423,0.219941,0.215054
1.060606,0.185728,0.185728
1.177908,0.166178,0.171065
1.006843,0.195503,0.195503
0.425220,0.532747,0.185728
0.303030,0.527859,0.171065
1.774194,0.317693,0.224829
1.798631,0.215054,0.195503
1.168133,0.200391,0.166178
1.133920,0.161290,0.161290
1.031281,0.156403,0.156403
0.752688,0.283480,0.156403
0.371457,0.953079,0.180841
0.366569,0.469208,0.166178
1.925709,0.293255,0.263930
1.891496,0.210166,0.254154
1.412512,0.185728,0.224829
0.928641,0.195503,0.195503
0.532747,0.180841,0.166178
0.361681,1.104594,0.195503
0.215054,0.694037,0.171065
1.554252,0.356794,0.224829
2.199413,0.239492,0.219941
1.720430,0.210166,0.210166
1.265885,0.185728,0.180841
1.265885,0.175953,0.175953
1.036168,0.156403,0.161290
0.449658,0.987292,0.210166
0.249267,0.767351,0.195503
1.969697,0.366569,0.210166
1.485826,0.234604,0.219941
1.593353,0.219941,0.190616
1.573803,0.200391,0.175953
1.383187,0.166178,0.185728
1.260997,0.151515,0.171065
0.552297,0.620723,0.166178
0.303030,0.992180,0.215054
1.715543,0.454545,0.273705
1.495601,0.268817,0.205279
1.520039,0.195503,0.185728
1.534702,0.175953,0.171065
1.695992,0.171065,0.180841
0.645161,0.537634,0.166178
0.312805,1.260997,0.229717
0.772239,0.527859,0.195503
1.583578,0.293255,0.195503
1.485826,0.210166,0.195503
1.402737,0.166178,0.175953
0.977517,0.166178,0.171065
0.845552,0.141740,0.156403
0.513196,0.327468,0.166178
0.263930,1.045943,0.200391
0.865103,0.508309,0.175953
1.974585,0.288368,0.200391
1.661779,0.205279,0.175953
1.314761,0.171065,0.156403
1.549365,0.171065,0.190616
1.295210,0.146628,0.166178
0.738025,0.288368,0.175953
0.351906,1.466276,0.244379
0.733138,0.684262,0.190616
1.964809,0.342131,0.224829
1.466276,0.229717,0.180841
0.698925,0.175953,0.166178
1.143695,0.156403,0.175953
1.104594,0.161290,0.171065
0.552297,0.713587,0.190616
0.278592,1.309873,0.229717
0.430108,0.547410,0.180841
1.735093,0.278592,0.180841
1.329423,0.469208,0.166178
2.043011,0.478983,0.180841
1.867058,0.312805,0.166178
1.378299,0.395894,0.161290
0.855327,0.263930,0.156403
0.400782,0.312805,0.166178
0.244379,0.459433,0.200391
0.488759,0.278592,0.175953
1.197458,0.215054,0.166178
1.114370,0.200391,0.175953
1.871945,0.327468,0.166178
1.647116,0.234604,0.161290
1.036168,0.210166,0.151515
0.439883,0.469208,0.166178
0.239492,0.337243,0.166178
0.229717,0.215054,0.156403
0.928641,0.161290,0.166178
1.168133,0.156403,0.156403
1.476051,0.151515,0.156403
1.344086,0.190616,0.161290
0.982405,0.200391,0.161290
0.703812,0.381232,0.166178
0.332356,0.381232,0.166178
0.410557,0.283480,0.166178
1.036168,0.278592,0.156403
1.461388,0.190616,0.166178
1.001955,0.210166,0.156403
0.977517,0.415445,0.156403
1.260997,0.244379,0.156403
0.982405,0.224829,0.151515
0.659824,0.210166,0.151515
0.337243,0.478983,0.175953
0.513196,0.317693,0.171065
0.850440,0.219941,0.161290
2.033236,0.180841,0.180841
1.764418,0.175953,0.161290
1.945259,0.210166,0.156403
1.187683,0.215054,0.151515
0.738025,0.171065,0.151515
0.415445,0.273705,0.156403
0.229717,0.425220,0.190616
0.234604,0.249267,0.166178
0.542522,0.175953,0.151515
1.221896,0.166178,0.175953
1.603128,0.156403,0.161290
1.202346,0.322581,0.156403
0.762463,0.200391,0.151515
1.124145,0.175953,0.161290
0.742913,0.342131,0.161290
0.337243,0.469208,0.190616
0.254154,0.249267,0.166178
1.461388,0.210166,0.180841
1.505376,0.166178,0.171065
1.480938,0.156403,0.156403
1.182796,0.200391,0.151515
1.417400,0.224829,0.156403
0.801564,0.381232,0.156403
0.518084,0.395894,0.156403
0.420332,0.444770,0.185728
0.351906,0.391007,0.171065
0.215054,0.283480,0.166178
0.229717,0.190616,0.156403
0.522972,0.161290,0.151515
1.143695,0.161290,0.175953
1.774194,0.317693,0.185728
2.209189,0.215054,0.190616
1.632454,0.185728,0.185728
1.671554,0.215054,0.185728
1.422287,0.215054,0.263930
1.383187,0.185728,0.215054
1.212121,0.190616,0.185728
0.913978,0.185728,0.161290
0.982405,0.156403,0.161290
0.601173,0.156403,0.161290
1.138807,0.151515,0.156403
1.143695,0.175953,0.175953
1.221896,0.185728,0.171065
0.972630,0.166178,0.166178
0.992180,0.151515,0.161290
0.992180,0.180841,0.166178
0.923754,0.156403,0.166178
0.943304,0.141740,0.171065
0.630499,0.161290,0.161290
1.045943,0.151515,0.156403
0.997067,0.156403,0.161290
0.962854,0.156403,0.161290
0.977517,0.166178,0.171065
0.738025,0.156403,0.166178
1.153470,0.141740,0.156403
1.050831,0.151515,0.156403
1.309873,0.151515,0.156403
0.933529,0.156403,0.171065
0.850440,0.146628,0.156403
0.850440,0.151515,0.161290
0.689150,0.141740,0.156403
0.752688,0.136852,0.161290
0.777126,0.141740,0.156403
0.601173,0.146628,0.151515
0.821114,0.151515,0.151515
0.801564,0.146628,0.156403
0.806452,0.146628,0.156403
0.953079,0.151515,0.156403
0.786901,0.156403,0.161290
0.830890,0.146628,0.156403
0.674487,0.161290,0.156403
1.050831,0.146628,0.151515
1.094819,0.175953,0.166178
0.953079,0.146628,0.151515
1.109482,0.161290,0.171065
1.109482,0.151515,0.166178
0.972630,0.166178,0.156403
1.016618,0.146628,0.156403
0.894428,0.175953,0.156403
1.080156,0.161290,0.156403
0.992180,0.146628,0.161290
1.104594,0.161290,0.161290
0.948192,0.151515,0.166178
0.855327,0.161290,0.166178
1.231672,0.156403,0.166178
1.251222,0.166178,0.156403
1.373412,0.156403,0.161290
1.001955,0.146628,0.156403
1.016618,0.151515,0.151515
0.928641,0.146628,0.161290
0.982405,0.161290,0.166178
1.055718,0.146628,0.161290
0.874878,0.146628,0.156403
1.231672,0.156403,0.151515
1.148583,0.146628,0.156403
1.182796,0.141740,0.151515
0.752688,0.151515,0.156403
1.045943,0.146628,0.156403
1.182796,0.151515,0.175953
1.138807,0.156403,0.161290
0.718475,0.161290,0.156403
0.874878,0.156403,0.156403
0.884653,0.151515,0.175953
1.075269,0.156403,0.166178
1.251222,0.146628,0.166178
1.085044,0.156403,0.200391
1.114370,0.151515,0.215054
0.972630,0.161290,0.190616
0.987292,0.141740,0.166178
0.791789,0.259042,0.210166
1.324536,0.229717,0.185728
1.627566,0.185728,0.171065
1.197458,0.166178,0.185728
0.962854,0.166178,0.195503
1.368524,0.151515,0.180841
0.918866,0.161290,0.171065
1.050831,0.171065,0.161290
0.698925,0.195503,0.190616
0.874878,0.166178,0.175953
0.855327,0.171065,0.185728
0.967742,0.161290,0.185728
0.874878,0.166178,0.190616
0.987292,0.171065,0.200391
0.762463,0.166178,0.175953
0.703812,0.171065,0.161290
0.713587,0.195503,0.185728
1.173021,0.161290,0.166178
1.495601,0.166178,0.190616
1.246334,0.156403,0.171065
1.241447,0.166178,0.200391
0.860215,0.151515,0.195503
0.889541,0.161290,0.171065
0.674487,0.259042,0.180841
1.881720,0.195503,0.161290
1.735093,0.171065,0.185728
1.495601,0.161290,0.171065
1.231672,0.151515,0.185728
1.060606,0.161290,0.180841
0.933529,0.156403,0.185728
0.845552,0.175953,0.175953
0.654936,0.195503,0.195503
1.124145,0.166178,0.171065
1.114370,0.151515,0.156403
0.977517,0.146628,0.185728
1.241447,0.136852,0.185728
1.133920,0.156403,0.180841
0.806452,0.146628,0.166178
0.635386,0.175953,0.166178
0.488759,0.190616,0.185728
1.143695,0.156403,0.166178
1.280547,0.156403,0.166178
0.938416,0.156403,0.175953
0.879765,0.156403,0.171065
1.226784,0.156403,0.171065
0.752688,0.156403,0.171065
0.483871,0.171065,0.175953
0.596285,0.200391,0.175953
1.138807,0.156403,0.161290
1.036168,0.166178,0.190616
1.089932,0.166178,0.200391
1.173021,0.166178,0.175953
1.153470,0.146628,0.166178
1.295210,0.180841,0.161290
0.840665,0.166178,0.161290
1.212121,0.161290,0.156403
1.173021,0.161290,0.161290
1.173021,0.141740,0.161290
1.109482,0.146628,0.166178
1.578690,0.161290,0.175953
1.353861,0.161290,0.166178
0.811339,0.332356,1.016618
1.153470,0.361681,0.865103
0.909091,0.229717,0.400782
2.174976,0.180841,0.234604
3.347996,0.219941,0.190616
2.223851,0.175953,0.161290
1.177908,0.190616,0.268817
0.703812,0.679374,0.635386
1.129032,0.342131,0.557185
0.982405,0.215054,0.293255
2.174976,0.175953,0.205279
1.730205,0.166178,0.175953
2.463343,0.180841,0.166178
1.554252,0.166178,0.156403
1.231672,0.879765,0.757576
1.275660,0.762463,0.767351
1.441838,0.361681,0.376344
1.739980,0.224829,0.234604
1.984360,0.210166,0.195503
2.121212,0.185728,0.185728
1.451613,0.166178,0.180841
0.659824,0.508309,0.821114
0.830890,0.542522,1.104594
1.168133,0.278592,0.469208
1.304985,0.185728,0.263930
1.383187,0.166178,0.190616
2.316716,0.166178,0.175953
1.823069,0.171065,0.171065
1.705767,0.166178,0.161290
0.997067,0.664712,0.679374
0.816227,0.703812,0.913978
1.187683,0.332356,0.415445
2.336266,0.224829,0.254154
1.681329,0.175953,0.185728
2.228739,0.171065,0.180841
1.290323,0.156403,0.161290
0.762463,0.459433,0.723363
1.138807,0.469208,0.826002
1.446725,0.273705,0.400782
1.827957,0.195503,0.254154
1.994135,0.195503,0.205279
2.565982,0.175953,0.180841
1.783969,0.171065,0.185728
1.182796,0.175953,0.210166
1.016618,0.757576,0.874878
1.163245,0.376344,0.596285
1.295210,0.224829,0.303030
2.116325,0.195503,0.244379
2.194526,0.166178,0.185728
1.642229,0.171065,0.166178
0.742913,0.288368,0.327468
0.684262,0.894428,0.806452
1.862170,0.415445,0.586510
2.839687,0.268817,0.356794
2.155425,0.205279,0.244379
1.935484,0.166178,0.190616
1.827957,0.156403,0.166178
0.865103,0.185728,0.356794
1.080156,0.351906,1.026393
1.353861,0.244379,0.537634
1.759531,0.185728,0.283480
1.906158,0.171065,0.205279
2.629521,0.171065,0.190616
2.077224,0.156403,0.166178
1.256109,0.166178,0.161290
0.904203,0.215054,0.288368
0.767351,0.317693,1.045943
0.874878,0.239492,0.591398
1.148583,0.175953,0.298143
1.353861,0.166178,0.215054
1.857283,0.166178,0.185728
1.725318,0.146628,0.161290
1.197458,0.273705,0.166178
0.581623,2.228739,0.234604
0.742913,1.529814,0.200391
1.251222,0.640274,0.180841
2.795699,0.327468,0.205279
3.357771,0.229717,0.195503
2.673509,0.185728,0.200391
1.378299,0.400782,0.185728
0.850440,1.011730,0.171065
0.703812,0.904203,0.166178
1.466276,0.518084,0.200391
2.135875,0.283480,0.229717
2.096774,0.229717,0.254154
3.030303,0.175953,0.205279
1.290323,0.366569,0.180841
0.757576,1.871945,0.254154
0.620723,1.304985,0.215054
1.036168,0.532747,0.185728
1.397849,0.288368,0.200391
1.793744,0.195503,0.185728
2.321603,0.185728,0.229717
1.402737,0.161290,0.180841
0.654936,0.782014,0.180841
0.874878,1.710655,0.263930
0.664712,0.767351,0.185728
1.260997,0.356794,0.185728
2.751711,0.219941,0.190616
2.873900,0.180841,0.185728
3.401760,0.161290,0.185728
1.344086,0.415445,0.175953
0.694037,2.233627,0.259042
0.713587,1.363636,0.200391
1.867058,0.576735,0.210166
2.434018,0.317693,0.185728
2.189638,0.219941,0.195503
2.140762,0.171065,0.175953
1.182796,0.161290,0.161290
0.620723,1.089932,0.200391
1.075269,1.138807,0.200391
1.964809,0.503421,0.210166
2.859238,0.278592,0.215054
2.991202,0.224829,0.200391
2.218964,0.180841,0.185728
0.904203,0.405670,0.171065
0.620723,2.101662,0.263930
0.522972,1.945259,0.234604
0.835777,0.889541,0.200391
1.876833,0.415445,0.210166
2.189638,0.259042,0.185728
2.590420,0.205279,0.185728
1.783969,0.171065,0.175953
0.708700,1.124145,0.195503
0.850440,1.764418,0.234604
1.578690,0.742913,0.224829
2.121212,0.356794,0.229717
2.771261,0.239492,0.205279
3.739003,0.200391,0.210166
2.482893,0.175953,0.180841
1.837732,0.161290,0.161290
0.806452,1.911046,0.205279
0.733138,1.441838,0.224829
0.855327,0.591398,0.185728
2.390029,0.303030,0.175953
2.996090,0.224829,0.200391
2.712610,0.195503,0.200391
1.588465,0.166178,0.175953
0.713587,1.534702,0.215054
0.694037,1.197458,0.205279
0.982405,0.889541,0.190616
1.339198,0.444770,0.215054
2.693060,0.263930,0.263930
3.543500,0.229717,0.249267
3.098729,0.215054,0.259042
2.531769,0.180841,0.205279
1.544477,0.371457,0.185728
0.645161,1.001955,0.249267
1.187683,0.537634,0.205279
2.414467,0.303030,0.185728
2.908113,0.229717,0.210166
3.782991,0.210166,0.215054
3.069404,0.180841,0.185728
2.468231,0.161290,0.175953
1.148583,0.420332,0.190616
0.874878,0.522972,0.195503
2.287390,0.317693,0.200391
3.875855,0.234604,0.234604
3.626588,0.205279,0.229717
3.343109,0.185728,0.205279
1.871945,0.166178,0.180841
0.713587,0.474096,0.185728
0.987292,0.459433,0.175953
1.681329,0.273705,0.205279
2.204301,0.219941,0.205279
3.137830,0.185728,0.205279
2.639296,0.166178,0.195503
2.526882,0.171065,0.185728
1.373412,0.190616,0.175953
0.557185,0.483871,0.185728
1.094819,0.434995,0.185728
1.867058,0.254154,0.185728
3.220919,0.200391,0.210166
2.922776,0.161290,0.190616
3.856305,0.180841,0.205279
1.564027,0.175953,0.171065
1.001955,0.395894,0.166178
0.972630,0.645161,0.224829
2.067449,0.439883,0.224829
2.463343,0.254154,0.205279
2.829912,0.195503,0.200391
3.431085,0.175953,0.175953
1.681329,0.161290,0.166178
0.728250,0.454545,0.200391
1.133920,0.356794,0.180841
2.409580,0.249267,0.210166
2.873900,0.190616,0.200391
3.113392,0.161290,0.200391
2.561095,0.166178,0.180841
1.334311,0.185728,0.166178
0.694037,0.562072,0.200391
1.153470,0.405670,0.205279
1.808407,0.263930,0.205279
3.093842,0.215054,0.244379
2.658847,0.171065,0.205279
2.233627,0.156403,0.171065
1.593353,0.146628,0.161290
0.997067,0.478983,0.205279
1.451613,0.381232,0.185728
2.086999,0.259042,0.195503
2.825024,0.224829,0.219941
2.253177,0.185728,0.205279
2.497556,0.171065,0.180841
1.143695,0.215054,0.166178
1.231672,0.317693,0.171065
1.143695,0.391007,0.185728
3.352884,0.244379,0.175953
3.597263,0.195503,0.190616
3.411535,0.171065,0.190616
2.316716,0.166178,0.175953
0.933529,0.283480,0.166178
0.884653,0.439883,0.205279
1.500489,0.356794,0.185728
2.238514,0.224829,0.190616
1.710655,0.175953,0.171065
2.521994,0.156403,0.175953
2.218964,0.146628,0.171065
2.321603,0.141740,0.166178
1.109482,0.195503,0.166178
1.124145,0.288368,0.185728
0.845552,0.718475,0.288368
2.135875,0.478983,0.283480
2.712610,0.273705,0.239492
1.901271,0.210166,0.195503
2.248289,0.200391,0.175953
2.091887,0.205279,0.175953
1.964809,0.175953,0.166178
1.783969,0.205279,0.166178
1.476051,0.166178,0.166178
1.236559,0.215054,0.156403
1.280547,0.185728,0.171065
1.285435,0.312805,0.180841
1.358749,0.283480,0.171065
1.451613,0.283480,0.175953
1.642229,0.249267,0.175953
1.138807,0.210166,0.171065
4.491691,0.234604,0.166178
4.496579,4.496579,4.506354
4.496579,4.496579,4.506354
4.496579,4.496579,4.506354
4.501466,4.496579,4.506354
4.501466,4.496579,4.506354
4.496579,4.501466,4.506354
4.496579,4.496579,4.506354
4.496579,4.496579,4.506354
4.491691,4.496579,4.506354
4.496579,4.496579,4.506354
4.501466,4.496579,4.506354
