emg1,emg2,emg3
2.018573,0.185728,0.210166
4.501466,0.205279,0.210166
4.501466,0.210166,0.200391
4.496579,0.190616,0.210166
4.501466,0.175953,0.195503
2.732160,0.161290,0.200391
1.539589,0.175953,0.195503
0.962854,0.185728,0.200391
0.777126,0.175953,0.200391
0.630499,0.156403,0.195503
0.679374,0.141740,0.200391
0.601173,0.136852,0.200391
0.674487,0.136852,0.195503
0.620723,0.136852,0.195503
0.620723,0.136852,0.200391
0.708700,0.141740,0.195503
0.796676,0.219941,0.195503
0.728250,0.195503,0.205279
0.909091,0.234604,0.224829
0.522972,0.175953,0.434995
0.347019,0.166178,0.449658
0.278592,0.146628,0.420332
0.322581,0.156403,0.430108
0.303030,0.146628,0.361681
0.244379,0.156403,0.356794
0.381232,0.146628,0.386119
0.351906,0.141740,0.342131
0.547410,0.141740,0.469208
1.016618,0.136852,0.415445
0.777126,0.141740,0.400782
0.967742,0.136852,0.376344
1.114370,0.146628,0.234604
0.997067,0.136852,0.180841
1.026393,0.141740,0.190616
0.894428,0.131965,0.180841
0.909091,0.131965,0.171065
0.982405,0.136852,0.171065
0.694037,0.136852,0.166178
0.449658,0.136852,0.156403
0.464321,0.136852,0.161290
0.430108,0.131965,0.156403
0.703812,0.131965,0.166178
0.967742,0.136852,0.156403
0.904203,0.131965,0.166178
1.080156,0.136852,0.180841
0.894428,0.141740,0.171065
1.006843,0.141740,0.166178
0.650049,0.136852,0.161290
0.659824,0.136852,0.171065
0.464321,0.131965,0.161290
0.635386,0.131965,0.161290
0.337243,0.136852,0.156403
0.356794,0.131965,0.161290
0.498534,0.131965,0.161290
0.562072,0.136852,0.161290
0.454545,0.131965,0.161290
0.552297,0.131965,0.156403
0.327468,0.131965,0.161290
0.283480,0.131965,0.161290
0.337243,0.131965,0.156403
0.527859,0.166178,0.161290
0.361681,2.526882,0.620723
0.332356,3.685239,0.909091
0.371457,4.496579,1.314761
0.327468,4.496579,1.089932
0.430108,4.491691,0.845552
0.298143,3.998045,0.747801
0.215054,2.375367,0.425220
0.166178,1.568915,0.381232
0.259042,0.620723,0.239492
1.241447,0.610948,0.234604
2.106549,0.498534,0.268817
2.311828,0.469208,0.215054
2.028348,0.351906,0.180841
1.461388,0.224829,0.166178
0.821114,0.210166,0.161290
0.777126,0.161290,0.156403
0.576735,0.156403,0.156403
0.713587,0.141740,0.161290
0.689150,0.136852,0.161290
0.527859,0.175953,0.161290
0.449658,0.889541,0.278592
0.508309,3.255132,0.894428
0.449658,4.491691,1.163245
0.376344,4.491691,1.304985
0.332356,3.621701,0.698925
0.219941,2.194526,0.478983
0.195503,1.647116,0.371457
0.278592,0.650049,0.224829
1.348974,0.909091,0.254154
1.842620,0.752688,0.288368
2.913001,0.645161,0.283480
1.544477,0.356794,0.205279
1.026393,0.215054,0.175953
0.957967,0.190616,0.166178
0.845552,0.156403,0.166178
0.830890,0.146628,0.171065
0.718475,0.156403,0.166178
0.606061,0.136852,0.166178
0.503421,1.441838,0.317693
0.869990,4.496579,1.637341
0.767351,4.496579,2.370479
0.620723,4.496579,1.652004
0.361681,4.286413,0.953079
0.268817,2.106549,0.508309
0.503421,1.099707,0.322581
1.446725,0.782014,0.283480
2.844575,0.816227,0.327468
2.492669,0.713587,0.259042
2.277615,0.464321,0.219941
1.837732,0.410557,0.190616
1.392962,0.288368,0.190616
1.348974,0.249267,0.185728
1.309873,0.180841,0.166178
1.055718,0.190616,0.171065
0.752688,0.156403,0.166178
1.016618,0.180841,0.166178
0.977517,0.185728,0.171065
0.635386,0.312805,0.219941
0.684262,2.678397,0.943304
0.796676,4.491691,2.140762
0.620723,4.491691,1.422287
0.606061,2.189638,0.894428
0.337243,1.275660,0.508309
0.694037,1.480938,0.425220
0.826002,0.640274,0.273705
1.432063,0.762463,0.322581
2.551320,0.840665,0.307918
3.069404,0.664712,0.303030
2.815249,0.522972,0.244379
1.256109,0.303030,0.200391
1.138807,0.273705,0.175953
0.796676,0.219941,0.166178
0.948192,0.190616,0.171065
0.718475,0.156403,0.161290
0.581623,0.141740,0.161290
0.620723,0.141740,0.156403
0.439883,0.141740,0.156403
0.742913,0.205279,0.161290
0.899316,1.085044,0.415445
0.894428,3.826979,1.197458
0.923754,4.496579,1.480938
0.674487,4.130010,0.953079
0.552297,3.968719,0.791789
0.298143,2.551320,0.503421
0.278592,1.544477,0.317693
1.070381,0.752688,0.259042
2.326491,0.943304,0.263930
2.629521,0.689150,0.283480
2.282502,0.518084,0.224829
1.544477,0.312805,0.195503
0.918866,0.190616,0.166178
0.596285,0.190616,0.161290
0.361681,0.156403,0.156403
0.395894,0.141740,0.156403
0.263930,0.141740,0.161290
0.601173,0.136852,0.161290
0.410557,0.156403,0.161290
0.395894,0.141740,0.161290
0.376344,0.136852,0.156403
0.527859,0.161290,0.161290
1.036168,0.224829,0.215054
0.606061,0.185728,0.175953
0.400782,0.219941,0.190616
1.129032,3.118280,0.620723
0.884653,4.496579,1.925709
1.109482,4.496579,1.827957
1.466276,4.496579,1.568915
0.962854,4.496579,1.769306
1.627566,4.496579,1.959922
2.033236,4.496579,1.901271
1.392962,4.491691,1.510264
1.021505,2.223851,0.650049
1.143695,1.241447,0.425220
1.085044,0.733138,0.273705
1.275660,0.522972,0.229717
2.096774,0.386119,0.234604
1.974585,0.312805,0.229717
1.847507,0.219941,0.185728
1.847507,0.254154,0.175953
1.715543,0.185728,0.171065
1.231672,0.161290,0.171065
0.816227,0.200391,0.180841
0.943304,2.404692,0.698925
0.923754,4.496579,1.412512
0.860215,4.496579,1.422287
1.129032,4.491691,1.138807
0.620723,3.939394,1.226784
0.620723,2.409580,0.738025
0.601173,1.036168,0.371457
0.987292,0.620723,0.293255
1.461388,0.532747,0.273705
2.033236,0.537634,0.263930
2.321603,0.400782,0.224829
1.656891,0.298143,0.205279
1.627566,0.205279,0.190616
0.904203,0.195503,0.185728
1.451613,0.156403,0.171065
0.874878,0.161290,0.171065
0.879765,0.259042,0.185728
0.552297,0.586510,0.332356
0.498534,3.123167,0.938416
0.850440,4.496579,1.700880
0.782014,4.496579,1.573803
0.708700,4.491691,1.129032
0.395894,3.196481,0.752688
0.527859,1.539589,0.415445
1.060606,0.806452,0.298143
1.906158,0.557185,0.249267
1.940371,0.395894,0.224829
2.614858,0.307918,0.283480
2.346041,0.268817,0.239492
1.656891,0.215054,0.200391
1.104594,0.171065,0.185728
0.953079,0.161290,0.175953
0.830890,0.185728,0.180841
0.522972,0.195503,0.185728
0.361681,0.171065,0.161290
0.601173,0.210166,0.166178
0.449658,2.165200,0.464321
0.620723,4.496579,1.788856
0.728250,4.496579,1.881720
0.566960,4.496579,1.363636
0.337243,2.800587,0.796676
1.021505,1.285435,0.469208
1.744868,0.772239,0.356794
2.482893,0.816227,0.337243
3.323558,0.571848,0.381232
2.346041,0.361681,0.263930
1.686217,0.244379,0.205279
1.300098,0.195503,0.175953
1.207234,0.166178,0.171065
0.689150,0.141740,0.161290
0.894428,0.146628,0.171065
0.620723,0.136852,0.161290
0.718475,0.151515,0.161290
0.601173,0.136852,0.161290
0.938416,0.244379,0.185728
1.251222,1.867058,0.420332
0.967742,3.748778,1.055718
0.791789,3.299120,1.075269
1.148583,2.815249,0.674487
0.518084,2.346041,0.557185
0.459433,0.967742,0.303030
0.439883,0.498534,0.229717
1.148583,0.650049,0.224829
2.170088,0.650049,0.229717
2.820137,0.581623,0.254154
2.194526,0.518084,0.303030
1.813294,0.278592,0.215054
1.246334,0.278592,0.180841
0.840665,0.244379,0.171065
1.065494,0.185728,0.161290
0.953079,0.195503,0.166178
0.777126,0.161290,0.166178
0.620723,0.156403,0.166178
0.835777,0.136852,0.190616
0.777126,0.156403,0.175953
0.855327,0.146628,0.166178
0.586510,0.136852,0.166178
0.430108,0.136852,0.166178
0.459433,0.136852,0.166178
0.430108,0.200391,0.171065
0.449658,1.212121,0.518084
0.361681,2.385142,0.826002
0.322581,4.296188,1.129032
0.327468,3.655914,0.850440
0.219941,2.609971,0.669599
0.171065,1.593353,0.478983
0.195503,0.645161,0.263930
0.615836,0.620723,0.263930
1.715543,0.723363,0.219941
2.512219,0.772239,0.249267
2.150538,0.513196,0.219941
2.228739,0.283480,0.190616
1.021505,0.273705,0.171065
0.972630,0.175953,0.161290
0.537634,0.151515,0.156403
0.439883,0.146628,0.224829
0.503421,0.136852,0.185728
0.405670,0.219941,0.190616
0.488759,2.341153,0.434995
0.571848,4.496579,1.300098
0.586510,4.496579,1.573803
0.420332,4.491691,1.124145
0.312805,3.587488,0.669599
0.200391,1.422287,0.356794
0.249267,0.703812,0.234604
1.622678,0.532747,0.215054
1.827957,0.777126,0.215054
3.040078,0.625611,0.219941
1.622678,0.420332,0.190616
0.777126,0.229717,0.175953
0.723363,0.224829,0.166178
0.591398,0.171065,0.166178
0.439883,0.180841,0.166178
0.483871,0.180841,0.161290
0.405670,0.146628,0.161290
0.381232,0.826002,0.288368
0.566960,2.375367,0.899316
0.444770,4.496579,1.490714
0.474096,4.491691,1.080156
0.307918,3.206256,0.513196
0.195503,1.319648,0.298143
0.532747,0.625611,0.219941
1.485826,0.518084,0.234604
2.013685,0.488759,0.234604
2.165200,0.503421,0.239492
1.265885,0.288368,0.205279
1.319648,0.254154,0.195503
0.850440,0.215054,0.175953
1.021505,0.166178,0.171065
0.791789,0.161290,0.166178
0.684262,0.151515,0.166178
0.513196,0.141740,0.161290
0.459433,0.522972,0.210166
0.591398,1.251222,0.498534
0.801564,4.491691,1.104594
0.552297,4.496579,1.055718
0.351906,4.477028,0.640274
0.224829,2.297165,0.420332
0.171065,0.933529,0.249267
0.166178,0.415445,0.190616
1.055718,0.439883,0.190616
1.808407,0.650049,0.239492
1.876833,0.620723,0.244379
1.578690,0.400782,0.205279
1.534702,0.283480,0.175953
0.879765,0.219941,0.166178
0.909091,0.200391,0.161290
0.669599,0.171065,0.161290
0.576735,0.141740,0.161290
0.337243,0.146628,0.175953
0.444770,1.109482,0.361681
0.684262,4.491691,1.138807
0.513196,4.496579,1.583578
0.444770,4.496579,1.055718
0.273705,3.763441,0.625611
0.185728,1.549365,0.361681
0.361681,0.684262,0.229717
1.397849,0.571848,0.234604
1.695992,0.513196,0.244379
2.864125,0.576735,0.317693
1.749756,0.322581,0.215054
1.432063,0.229717,0.180841
0.752688,0.219941,0.171065
0.904203,0.161290,0.171065
0.601173,0.161290,0.161290
0.620723,0.171065,0.171065
0.674487,0.566960,0.244379
0.650049,3.636364,1.021505
0.713587,4.491691,1.793744
0.679374,4.496579,1.182796
0.508309,2.732160,0.615836
0.263930,1.099707,0.366569
0.347019,0.596285,0.263930
1.251222,0.557185,0.263930
1.744868,0.733138,0.278592
2.282502,0.669599,0.288368
1.392962,0.400782,0.215054
1.539589,0.337243,0.180841
0.698925,0.224829,0.175953
0.669599,0.161290,0.166178
0.518084,0.156403,0.166178
0.444770,0.249267,0.180841
0.391007,0.488759,0.254154
0.601173,3.084066,0.654936
0.689150,4.496579,1.060606
0.576735,4.496579,1.099707
0.664712,4.496579,0.879765
0.351906,3.211144,0.493646
0.395894,1.212121,0.303030
0.928641,0.674487,0.278592
1.744868,0.610948,0.229717
1.871945,0.684262,0.219941
1.666667,0.478983,0.185728
1.544477,0.288368,0.175953
0.977517,0.200391,0.166178
0.664712,0.175953,0.166178
0.654936,0.146628,0.161290
0.415445,0.136852,0.161290
0.439883,0.136852,0.156403
0.449658,0.141740,0.156403
0.508309,1.080156,0.317693
0.645161,3.499511,0.767351
0.601173,4.491691,0.899316
0.581623,4.374389,0.786901
0.386119,3.401760,0.728250
0.229717,1.524927,0.420332
0.268817,1.217009,0.283480
0.874878,0.606061,0.224829
1.915934,0.860215,0.268817
2.258065,0.689150,0.278592
2.683284,0.513196,0.239492
1.676442,0.386119,0.195503
1.466276,0.259042,0.190616
1.031281,0.195503,0.166178
0.659824,0.200391,0.166178
0.488759,0.161290,0.156403
0.508309,0.156403,0.161290
0.405670,0.136852,0.161290
0.596285,1.485826,0.464321
0.630499,4.496579,1.779081
0.503421,4.496579,1.573803
0.439883,4.467253,0.835777
0.288368,2.966764,0.581623
0.322581,1.588465,0.337243
0.698925,0.689150,0.234604
1.441838,0.615836,0.215054
2.033236,0.527859,0.210166
1.710655,0.356794,0.205279
1.324536,0.322581,0.175953
1.109482,0.234604,0.175953
1.309873,0.185728,0.161290
0.767351,0.171065,0.161290
0.576735,0.156403,0.166178
0.513196,0.146628,0.166178
0.576735,0.224829,0.166178
0.752688,1.652004,0.371457
1.143695,3.015640,0.889541
1.593353,4.491691,1.065494
1.309873,4.491691,0.909091
0.899316,2.961877,0.615836
0.659824,1.334311,0.381232
0.860215,0.581623,0.239492
0.953079,0.620723,0.200391
1.559140,0.620723,0.200391
2.248289,0.610948,0.234604
2.184751,0.439883,0.190616
1.480938,0.327468,0.175953
1.422287,0.439883,0.185728
0.850440,0.229717,0.166178
0.738025,0.224829,0.166178
0.478983,0.175953,0.156403
0.361681,0.283480,0.166178
0.733138,1.231672,0.566960
0.694037,3.978495,1.050831
0.596285,4.496579,1.637341
0.909091,4.496579,1.197458
0.478983,3.470186,0.928641
0.503421,1.300098,0.434995
0.796676,0.610948,0.273705
1.221896,0.552297,0.254154
1.036168,0.400782,0.205279
1.236559,0.474096,0.239492
1.314761,0.415445,0.205279
1.392962,0.303030,0.224829
1.656891,0.273705,0.195503
2.179863,0.254154,0.234604
1.500489,0.215054,0.185728
1.363636,0.180841,0.175953
0.542522,0.146628,0.166178
0.273705,0.136852,0.161290
0.190616,0.146628,0.161290
0.161290,0.175953,0.185728
0.146628,0.200391,0.175953
0.146628,0.303030,0.210166
0.141740,0.415445,0.239492
0.141740,0.459433,0.298143
0.141740,0.698925,0.229717
0.156403,0.464321,0.234604
0.156403,0.273705,0.205279
0.185728,0.234604,0.205279
0.219941,0.185728,0.185728
0.566960,0.161290,0.171065
0.439883,0.156403,0.175953
0.689150,0.156403,0.175953
0.928641,0.180841,0.180841
1.407625,0.185728,0.190616
1.578690,0.185728,0.200391
1.529814,0.185728,0.205279
1.661779,0.215054,0.195503
2.003910,0.190616,0.215054
2.404692,0.190616,0.215054
2.116325,0.185728,0.190616
1.608016,0.171065,0.195503
1.764418,0.156403,0.195503
1.666667,0.180841,0.200391
4.496579,0.718475,0.205279
4.496579,4.491691,1.055718
4.501466,3.098729,0.508309
4.501466,4.496579,1.295210
4.501466,4.501466,2.771261
4.496579,4.496579,4.506354
4.501466,4.496579,4.511241
4.496579,4.496579,3.602151
4.501466,4.491691,1.285435
4.491691,1.852395,0.537634
2.580645,0.698925,0.298143
4.501466,4.501466,1.353861
4.501466,4.496579,3.294233
4.501466,4.496579,1.930596
4.496579,3.010753,0.757576
4.501466,1.104594,0.410557
4.496579,0.532747,0.259042
4.496579,3.778104,1.026393
4.496579,1.432063,0.469208
4.491691,0.606061,0.273705
2.121212,0.303030,0.219941
1.520039,0.205279,0.200391
1.114370,0.219941,0.190616
0.923754,0.190616,0.195503
1.226784,0.190616,0.200391
0.928641,0.190616,0.190616
1.260997,0.263930,0.200391
0.850440,0.195503,0.185728
0.913978,0.180841,0.175953
0.860215,0.166178,0.171065
0.894428,0.185728,0.175953
1.006843,0.185728,0.180841
1.070381,0.224829,0.175953
1.319648,0.200391,0.180841
1.124145,0.190616,0.185728
1.793744,0.268817,0.190616
1.080156,0.195503,0.210166
1.168133,0.195503,0.288368
0.992180,0.215054,0.229717
2.062561,1.295210,0.586510
1.099707,0.865103,0.327468
0.635386,0.464321,0.259042
1.544477,0.254154,0.268817
0.992180,0.175953,0.229717
0.703812,0.151515,0.215054
0.547410,0.151515,0.210166
0.723363,0.141740,0.200391
0.747801,0.136852,0.224829
2.214076,1.754643,0.747801
1.319648,0.679374,0.361681
0.801564,0.317693,0.234604
0.625611,0.200391,0.195503
0.469208,0.161290,0.185728
0.542522,0.141740,0.166178
0.733138,0.131965,0.161290
0.620723,0.131965,0.151515
0.664712,0.136852,0.171065
1.006843,0.185728,0.166178
1.119257,0.166178,0.166178
1.256109,0.175953,0.171065
1.031281,0.166178,0.166178
1.329423,0.215054,0.185728
1.236559,0.185728,0.166178
1.309873,0.215054,0.166178
1.197458,0.185728,0.171065
1.564027,0.175953,0.161290
1.344086,0.195503,0.156403
1.319648,0.185728,0.171065
1.280547,0.224829,0.166178
1.055718,0.175953,0.180841
1.339198,0.219941,0.171065
1.397849,0.259042,0.175953
1.358749,0.254154,0.175953
1.314761,0.278592,0.195503
1.006843,0.254154,0.180841
1.348974,0.288368,0.200391
1.490714,0.224829,0.185728
0.943304,0.234604,0.166178
0.953079,0.303030,0.161290
