emg1,emg2,emg3
0.918866,0.166178,0.180841
0.909091,0.161290,0.166178
0.953079,0.156403,0.161290
0.742913,0.156403,0.166178
0.454545,0.171065,0.161290
0.376344,0.151515,0.156403
0.361681,0.146628,0.156403
0.620723,0.136852,0.151515
0.659824,0.136852,0.161290
0.586510,0.146628,0.156403
0.522972,0.146628,0.156403
0.283480,0.175953,0.151515
0.210166,0.166178,0.156403
0.166178,0.156403,0.156403
0.166178,0.141740,0.146628
0.146628,0.136852,0.156403
0.171065,0.136852,0.156403
0.156403,0.136852,0.151515
0.146628,0.136852,0.151515
0.141740,0.136852,0.151515
0.200391,0.131965,0.151515
0.190616,0.131965,0.151515
0.278592,0.136852,0.151515
0.381232,0.131965,0.156403
0.376344,0.136852,0.151515
0.826002,0.131965,0.151515
1.045943,0.136852,0.151515
1.236559,0.136852,0.156403
1.197458,0.141740,0.166178
0.762463,0.131965,0.156403
0.865103,0.136852,0.161290
0.518084,0.131965,0.156403
0.581623,0.131965,0.151515
0.386119,0.131965,0.151515
0.591398,0.131965,0.151515
0.307918,0.131965,0.151515
0.469208,0.131965,0.156403
0.449658,0.131965,0.166178
0.615836,0.131965,0.161290
0.400782,0.131965,0.156403
0.273705,0.136852,0.151515
0.185728,0.136852,0.156403
0.307918,0.131965,0.151515
0.630499,0.136852,0.166178
1.119257,0.156403,0.175953
0.889541,0.146628,0.175953
1.368524,0.141740,0.205279
1.006843,0.151515,0.171065
0.679374,0.136852,0.161290
0.415445,0.136852,0.161290
0.591398,0.136852,0.156403
0.449658,0.136852,0.161290
0.503421,0.136852,0.166178
0.654936,0.136852,0.161290
0.684262,0.171065,0.161290
0.518084,2.101662,0.503421
0.659824,4.242424,0.830890
0.498534,4.491691,1.241447
0.444770,3.499511,0.757576
0.351906,3.250244,0.449658
0.215054,1.705767,0.351906
0.166178,1.163245,0.303030
0.327468,0.513196,0.205279
1.148583,0.469208,0.215054
1.612903,0.650049,0.254154
1.871945,0.425220,0.244379
1.363636,0.317693,0.205279
0.845552,0.224829,0.175953
0.620723,0.166178,0.161290
0.537634,0.146628,0.156403
0.351906,0.146628,0.156403
0.503421,0.141740,0.156403
0.547410,0.136852,0.156403
0.415445,0.166178,0.156403
0.689150,0.190616,0.161290
0.474096,0.224829,0.166178
0.439883,3.206256,0.640274
0.459433,4.491691,1.280547
0.386119,4.496579,1.065494
0.278592,2.785924,0.537634
0.185728,1.339198,0.303030
0.161290,0.640274,0.205279
0.615836,0.400782,0.185728
1.427175,0.537634,0.234604
1.915934,0.635386,0.288368
1.691105,0.459433,0.268817
1.456500,0.273705,0.200391
0.943304,0.185728,0.171065
0.650049,0.151515,0.156403
0.566960,0.136852,0.156403
0.464321,0.141740,0.146628
0.410557,0.151515,0.146628
0.371457,0.141740,0.151515
0.219941,0.136852,0.151515
0.180841,0.136852,0.151515
0.156403,0.136852,0.151515
0.146628,0.131965,0.146628
0.156403,0.131965,0.151515
0.146628,0.136852,0.151515
0.141740,0.136852,0.151515
0.141740,0.136852,0.146628
0.141740,0.136852,0.151515
0.146628,0.131965,0.151515
0.146628,0.136852,0.151515
0.136852,0.136852,0.146628
0.141740,0.131965,0.151515
0.141740,0.131965,0.151515
0.141740,0.131965,0.146628
0.136852,0.136852,0.151515
0.141740,0.131965,0.151515
0.141740,0.136852,0.151515
0.141740,0.131965,0.151515
0.146628,0.131965,0.146628
0.141740,0.131965,0.146628
0.141740,0.131965,0.146628
0.136852,0.131965,0.151515
0.146628,0.131965,0.156403
0.141740,0.131965,0.146628
0.141740,0.131965,0.151515
0.141740,0.131965,0.151515
0.141740,0.131965,0.151515
0.141740,0.131965,0.151515
0.141740,0.136852,0.151515
0.141740,0.136852,0.151515
0.146628,0.136852,0.151515
0.136852,0.131965,0.151515
0.141740,0.136852,0.151515
0.146628,0.131965,0.151515
0.141740,0.131965,0.151515
0.156403,0.136852,0.166178
0.166178,0.136852,0.161290
0.151515,0.151515,0.171065
0.151515,0.136852,0.161290
0.146628,0.210166,0.161290
0.381232,1.559140,0.449658
1.710655,2.913001,0.987292
0.899316,4.486804,1.319648
0.869990,3.734115,0.923754
0.439883,2.228739,0.513196
0.239492,0.840665,0.273705
0.219941,0.405670,0.190616
1.094819,0.488759,0.244379
1.622678,0.620723,0.244379
1.676442,0.405670,0.244379
0.962854,0.332356,0.185728
0.967742,0.215054,0.171065
0.425220,0.156403,0.156403
0.239492,0.141740,0.161290
0.175953,0.136852,0.146628
0.151515,0.136852,0.151515
0.146628,0.136852,0.146628
0.141740,0.131965,0.151515
0.141740,0.131965,0.146628
0.141740,0.136852,0.151515
0.141740,0.136852,0.146628
0.141740,0.131965,0.151515
0.141740,0.131965,0.151515
0.141740,0.136852,0.156403
0.141740,0.136852,0.151515
0.141740,0.131965,0.151515
0.141740,0.131965,0.151515
0.136852,0.131965,0.151515
0.141740,0.136852,0.151515
0.141740,0.131965,0.151515
0.175953,0.141740,0.156403
0.791789,0.762463,0.288368
1.036168,4.227761,0.772239
0.733138,4.496579,1.510264
0.503421,4.496579,1.109482
0.278592,1.876833,0.469208
0.190616,0.786901,0.254154
0.376344,0.434995,0.190616
1.202346,0.322581,0.180841
0.703812,0.249267,0.161290
0.786901,0.219941,0.156403
0.606061,0.166178,0.156403
0.366569,0.151515,0.151515
0.610948,0.156403,0.156403
0.449658,0.146628,0.151515
0.493646,0.180841,0.156403
0.835777,0.156403,0.161290
0.430108,0.141740,0.156403
0.508309,0.156403,0.161290
0.283480,0.141740,0.156403
0.195503,0.136852,0.151515
0.171065,0.136852,0.151515
0.156403,0.146628,0.156403
0.151515,0.141740,0.151515
0.141740,0.136852,0.156403
0.376344,0.161290,0.156403
0.434995,0.146628,0.175953
0.410557,0.175953,0.166178
0.469208,0.146628,0.156403
0.332356,0.146628,0.156403
0.459433,0.136852,0.166178
0.322581,0.166178,0.161290
0.522972,1.568915,0.537634
0.547410,4.491691,2.052786
0.620723,4.496579,2.082111
0.312805,3.533724,0.791789
0.200391,1.368524,0.366569
0.175953,0.694037,0.224829
0.923754,0.493646,0.195503
1.632454,0.557185,0.229717
1.994135,0.493646,0.200391
1.221896,0.317693,0.171065
0.684262,0.195503,0.156403
0.322581,0.151515,0.151515
0.195503,0.136852,0.151515
0.156403,0.136852,0.151515
0.146628,0.136852,0.151515
0.141740,0.136852,0.151515
0.141740,0.136852,0.146628
0.141740,0.136852,0.151515
0.141740,0.136852,0.146628
0.141740,0.131965,0.146628
0.141740,0.131965,0.151515
0.141740,0.131965,0.151515
0.141740,0.136852,0.156403
0.146628,0.131965,0.156403
0.141740,0.136852,0.146628
0.136852,0.136852,0.146628
0.146628,0.131965,0.151515
0.141740,0.136852,0.151515
0.210166,0.141740,0.180841
0.904203,0.503421,0.180841
0.718475,2.658847,0.728250
0.522972,4.491691,1.862170
0.400782,4.076246,1.109482
0.263930,1.622678,0.527859
0.180841,0.650049,0.273705
0.210166,0.371457,0.195503
0.796676,0.415445,0.215054
1.114370,0.508309,0.195503
1.085044,0.356794,0.175953
0.811339,0.288368,0.161290
0.444770,0.180841,0.156403
0.239492,0.156403,0.151515
0.175953,0.141740,0.151515
0.151515,0.131965,0.151515
0.146628,0.136852,0.151515
0.146628,0.136852,0.151515
0.141740,0.131965,0.151515
0.141740,0.131965,0.151515
0.141740,0.131965,0.151515
0.141740,0.136852,0.146628
0.146628,0.131965,0.151515
0.156403,0.131965,0.151515
0.146628,0.136852,0.151515
0.166178,0.131965,0.166178
0.156403,0.131965,0.156403
0.156403,0.141740,0.171065
0.156403,0.136852,0.156403
0.156403,0.141740,0.166178
0.151515,0.151515,0.175953
0.200391,0.239492,0.180841
0.391007,1.779081,0.586510
0.576735,4.496579,1.334311
0.547410,4.501466,1.402737
0.513196,3.856305,0.762463
0.273705,2.218964,0.503421
0.190616,1.265885,0.347019
0.161290,0.518084,0.215054
0.449658,0.405670,0.195503
1.495601,0.430108,0.205279
1.593353,0.596285,0.200391
1.622678,0.391007,0.190616
1.510264,0.263930,0.166178
0.674487,0.190616,0.151515
0.469208,0.156403,0.156403
0.278592,0.141740,0.146628
0.185728,0.136852,0.151515
0.156403,0.136852,0.151515
0.146628,0.131965,0.146628
0.146628,0.136852,0.146628
0.141740,0.131965,0.151515
0.141740,0.131965,0.151515
0.141740,0.136852,0.151515
0.141740,0.136852,0.151515
0.141740,0.131965,0.151515
0.141740,0.131965,0.151515
0.141740,0.131965,0.146628
0.136852,0.131965,0.151515
0.141740,0.131965,0.151515
0.141740,0.131965,0.151515
0.146628,0.131965,0.151515
0.141740,0.131965,0.151515
0.146628,0.171065,0.166178
0.351906,1.603128,0.615836
0.337243,3.885630,1.226784
0.337243,4.252199,0.992180
0.249267,2.126100,0.566960
0.185728,1.915934,0.532747
0.161290,1.891496,0.420332
0.161290,1.270772,0.288368
0.146628,0.689150,0.200391
0.156403,0.376344,0.166178
1.432063,0.459433,0.249267
1.554252,0.542522,0.229717
1.490714,0.400782,0.205279
0.816227,0.229717,0.171065
0.366569,0.166178,0.156403
0.215054,0.146628,0.151515
0.166178,0.136852,0.151515
0.151515,0.131965,0.151515
0.146628,0.131965,0.151515
0.141740,0.131965,0.151515
0.141740,0.136852,0.151515
0.141740,0.131965,0.151515
0.146628,0.131965,0.146628
0.141740,0.131965,0.151515
0.146628,0.131965,0.151515
0.136852,0.131965,0.151515
0.141740,0.136852,0.151515
0.136852,0.127077,0.146628
0.141740,0.131965,0.151515
0.141740,0.136852,0.151515
0.156403,0.156403,0.156403
0.146628,0.146628,0.156403
0.141740,0.136852,0.141740
0.141740,0.136852,0.146628
0.146628,0.131965,0.151515
0.151515,0.962854,0.249267
0.347019,2.414467,0.596285
0.488759,4.491691,1.251222
0.434995,4.491691,0.801564
0.268817,2.414467,0.464321
0.180841,1.055718,0.278592
0.205279,0.566960,0.195503
0.791789,0.576735,0.195503
1.094819,0.361681,0.171065
1.036168,0.376344,0.185728
1.226784,0.293255,0.166178
0.953079,0.254154,0.156403
0.527859,0.200391,0.156403
0.366569,0.151515,0.151515
0.215054,0.141740,0.151515
0.166178,0.131965,0.151515
0.151515,0.136852,0.151515
0.146628,0.131965,0.156403
0.141740,0.131965,0.151515
0.141740,0.131965,0.151515
0.146628,0.131965,0.151515
0.146628,0.131965,0.146628
0.146628,0.131965,0.151515
0.141740,0.136852,0.151515
0.141740,0.136852,0.151515
0.141740,0.131965,0.151515
0.141740,0.136852,0.151515
0.156403,0.474096,0.205279
0.342131,3.826979,0.684262
0.420332,4.491691,1.148583
0.351906,3.484848,0.889541
0.244379,1.593353,0.420332
0.175953,0.938416,0.263930
0.151515,0.430108,0.190616
1.236559,0.415445,0.200391
1.378299,0.498534,0.205279
1.871945,0.405670,0.185728
1.089932,0.283480,0.171065
0.840665,0.224829,0.156403
0.513196,0.171065,0.151515
0.268817,0.156403,0.151515
0.185728,0.141740,0.156403
0.190616,0.136852,0.151515
0.156403,0.131965,0.151515
0.141740,0.136852,0.146628
0.146628,0.131965,0.151515
0.141740,0.136852,0.151515
0.136852,0.131965,0.146628
0.141740,0.131965,0.151515
0.141740,0.131965,0.151515
0.141740,0.131965,0.151515
0.141740,0.131965,0.151515
0.141740,0.131965,0.151515
0.141740,0.131965,0.151515
0.136852,0.136852,0.151515
0.151515,0.151515,0.151515
0.283480,0.869990,0.293255
0.537634,2.531769,1.202346
0.591398,4.496579,1.476051
0.967742,4.335288,0.909091
0.425220,1.837732,0.449658
0.234604,0.772239,0.254154
0.728250,0.537634,0.263930
1.769306,0.689150,0.219941
1.994135,0.620723,0.244379
1.847507,0.620723,0.190616
0.987292,0.317693,0.166178
0.420332,0.195503,0.161290
0.234604,0.166178,0.151515
0.190616,0.146628,0.151515
0.156403,0.136852,0.151515
0.136852,0.156403,0.151515
0.146628,0.141740,0.151515
0.141740,0.131965,0.151515
0.141740,0.136852,0.151515
0.146628,0.131965,0.151515
0.146628,0.136852,0.151515
0.156403,0.131965,0.151515
0.259042,0.131965,0.151515
0.298143,0.131965,0.151515
0.508309,0.146628,0.146628
0.752688,0.410557,0.195503
1.168133,2.409580,0.879765
0.909091,4.496579,1.339198
0.850440,4.496579,1.197458
0.576735,2.502444,0.679374
0.288368,0.977517,0.332356
0.488759,0.752688,0.219941
1.642229,0.400782,0.200391
1.730205,0.606061,0.229717
1.681329,0.527859,0.195503
1.226784,0.439883,0.175953
0.586510,0.244379,0.166178
0.288368,0.166178,0.156403
0.185728,0.146628,0.151515
0.156403,0.146628,0.156403
0.146628,0.136852,0.151515
0.146628,0.136852,0.151515
0.141740,0.131965,0.151515
0.141740,0.136852,0.146628
0.141740,0.131965,0.146628
0.141740,0.131965,0.146628
0.141740,0.136852,0.146628
0.141740,0.131965,0.151515
0.141740,0.131965,0.151515
0.156403,0.141740,0.156403
0.219941,0.141740,0.151515
0.224829,0.136852,0.151515
0.205279,0.141740,0.151515
0.175953,0.141740,0.156403
0.175953,0.136852,0.151515
0.171065,0.136852,0.151515
0.620723,0.205279,0.224829
0.723363,1.480938,0.425220
0.630499,3.670577,0.806452
0.625611,2.746823,0.610948
0.469208,2.204301,0.483871
0.259042,1.260997,0.317693
0.185728,0.850440,0.205279
0.156403,0.376344,0.171065
0.503421,0.259042,0.161290
0.962854,0.273705,0.156403
0.928641,0.361681,0.156403
1.476051,0.420332,0.175953
1.075269,0.283480,0.161290
1.104594,0.303030,0.156403
0.650049,0.215054,0.151515
0.478983,0.166178,0.151515
0.342131,0.146628,0.146628
0.210166,0.146628,0.151515
0.185728,0.136852,0.151515
0.156403,0.136852,0.156403
0.146628,0.136852,0.151515
0.151515,0.136852,0.151515
0.146628,0.127077,0.151515
0.141740,0.131965,0.151515
0.146628,0.131965,0.146628
0.146628,0.127077,0.151515
0.141740,0.131965,0.151515
0.146628,0.136852,0.151515
0.156403,0.131965,0.151515
0.151515,0.141740,0.156403
0.366569,0.166178,0.156403
0.366569,0.180841,0.156403
0.224829,0.156403,0.156403
0.444770,1.031281,0.371457
0.850440,4.496579,1.495601
0.884653,4.496579,1.104594
0.547410,3.142717,0.762463
0.278592,1.309873,0.371457
0.185728,0.615836,0.224829
1.109482,0.547410,0.205279
2.033236,0.694037,0.259042
2.458456,0.596285,0.229717
1.480938,0.322581,0.180841
0.581623,0.200391,0.161290
0.283480,0.151515,0.156403
0.185728,0.136852,0.146628
0.161290,0.136852,0.151515
0.146628,0.136852,0.151515
0.146628,0.131965,0.151515
0.141740,0.136852,0.151515
0.141740,0.131965,0.151515
0.141740,0.131965,0.151515
0.141740,0.131965,0.146628
0.136852,0.127077,0.151515
0.141740,0.131965,0.151515
0.141740,0.131965,0.146628
0.136852,0.131965,0.151515
0.136852,0.131965,0.151515
0.151515,0.146628,0.161290
0.156403,0.542522,0.175953
0.571848,4.330401,1.114370
0.694037,4.496579,1.632454
0.723363,4.491691,1.138807
0.410557,1.920821,0.532747
0.229717,0.723363,0.273705
0.171065,0.332356,0.195503
0.190616,0.200391,0.166178
1.065494,0.224829,0.185728
1.050831,0.498534,0.175953
1.045943,0.542522,0.171065
0.865103,0.327468,0.156403
0.474096,0.249267,0.156403
0.249267,0.171065,0.151515
0.175953,0.146628,0.156403
0.224829,0.151515,0.151515
0.239492,0.141740,0.156403
0.185728,0.136852,0.151515
0.166178,0.136852,0.146628
0.146628,0.131965,0.151515
0.151515,0.136852,0.151515
0.141740,0.131965,0.151515
0.156403,0.141740,0.151515
0.293255,0.146628,0.156403
0.205279,0.131965,0.156403
0.405670,0.136852,0.156403
0.454545,0.210166,0.175953
0.351906,3.445748,0.576735
0.684262,4.496579,0.850440
0.610948,4.491691,0.796676
0.772239,3.435973,0.566960
0.361681,1.744868,0.347019
0.259042,0.718475,0.215054
0.420332,0.381232,0.175953
1.485826,0.391007,0.166178
1.500489,0.386119,0.166178
1.021505,0.259042,0.166178
1.006843,0.234604,0.156403
0.801564,0.200391,0.151515
0.454545,0.175953,0.156403
0.415445,0.151515,0.151515
0.342131,0.161290,0.151515
0.215054,0.141740,0.156403
0.190616,0.136852,0.156403
0.156403,0.136852,0.146628
0.146628,0.131965,0.151515
0.175953,0.131965,0.151515
0.263930,0.146628,0.156403
0.229717,0.141740,0.166178
0.219941,0.141740,0.151515
0.166178,0.141740,0.151515
0.166178,0.136852,0.151515
0.229717,0.171065,0.171065
0.620723,1.114370,0.317693
0.498534,2.961877,0.733138
0.757576,4.491691,1.309873
0.821114,4.496579,0.967742
0.459433,4.222874,0.679374
0.244379,1.544477,0.356794
0.239492,0.728250,0.234604
1.231672,0.606061,0.215054
1.304985,0.513196,0.200391
1.358749,0.356794,0.180841
1.256109,0.307918,0.166178
0.830890,0.190616,0.156403
0.488759,0.161290,0.156403
0.312805,0.146628,0.151515
0.283480,0.136852,0.151515
0.215054,0.136852,0.151515
0.171065,0.131965,0.151515
0.156403,0.136852,0.151515
0.166178,0.136852,0.151515
0.156403,0.136852,0.151515
0.215054,0.141740,0.156403
0.171065,0.131965,0.151515
0.161290,0.136852,0.151515
0.161290,0.141740,0.156403
0.200391,0.136852,0.156403
0.483871,0.205279,0.180841
0.620723,2.277615,0.723363
0.791789,4.496579,1.138807
0.650049,4.389052,0.967742
0.552297,3.372434,0.718475
0.283480,1.295210,0.371457
0.254154,0.620723,0.234604
1.309873,0.522972,0.239492
2.023460,0.640274,0.215054
1.847507,0.620723,0.200391
1.246334,0.322581,0.166178
1.334311,0.244379,0.161290
0.615836,0.180841,0.156403
0.635386,0.151515,0.151515
0.469208,0.141740,0.151515
0.527859,0.146628,0.151515
0.689150,0.141740,0.151515
0.698925,0.136852,0.156403
0.449658,0.141740,0.156403
0.298143,0.136852,0.161290
0.312805,0.131965,0.151515
0.312805,0.136852,0.175953
0.283480,0.136852,0.161290
0.371457,0.131965,0.156403
0.488759,0.532747,0.283480
0.571848,3.074291,0.913978
0.615836,4.496579,1.388074
0.532747,4.491691,1.050831
0.410557,3.123167,0.782014
0.303030,1.686217,0.449658
0.537634,0.782014,0.263930
1.363636,0.635386,0.259042
1.246334,0.586510,0.195503
1.720430,0.566960,0.195503
2.003910,0.347019,0.175953
1.124145,0.288368,0.156403
0.938416,0.190616,0.156403
0.581623,0.185728,0.156403
0.444770,0.151515,0.151515
0.361681,0.175953,0.156403
0.312805,0.151515,0.151515
0.478983,0.141740,0.151515
0.361681,0.141740,0.151515
0.439883,0.136852,0.151515
0.347019,0.131965,0.151515
0.224829,0.136852,0.151515
0.351906,0.180841,0.185728
0.361681,0.210166,0.185728
0.391007,1.652004,0.537634
0.684262,4.496579,1.412512
0.620723,4.496579,1.217009
0.566960,4.491691,0.869990
0.307918,3.220919,0.703812
0.224829,1.886608,0.410557
0.860215,0.982405,0.288368
1.827957,1.031281,0.259042
1.891496,0.948192,0.244379
2.570870,0.772239,0.254154
1.173021,0.361681,0.195503
0.738025,0.219941,0.166178
0.576735,0.171065,0.156403
0.434995,0.190616,0.156403
0.474096,0.156403,0.151515
0.254154,0.141740,0.146628
0.229717,0.136852,0.151515
0.171065,0.136852,0.151515
0.166178,0.131965,0.156403
0.224829,0.141740,0.156403
0.263930,0.166178,0.166178
0.513196,0.161290,0.166178
0.347019,0.151515,0.161290
0.254154,0.151515,0.166178
0.244379,0.151515,0.156403
0.395894,0.312805,0.180841
0.410557,1.759531,0.620723
0.576735,4.496579,1.446725
0.703812,4.496579,1.055718
0.478983,2.741935,0.625611
0.249267,1.031281,0.327468
0.430108,0.586510,0.224829
1.495601,0.356794,0.224829
1.681329,0.420332,0.205279
1.368524,0.278592,0.180841
1.041056,0.303030,0.161290
0.850440,0.244379,0.161290
0.630499,0.244379,0.156403
0.386119,0.166178,0.151515
0.493646,0.156403,0.161290
0.327468,0.151515,0.156403
0.288368,0.136852,0.151515
0.381232,0.151515,0.151515
0.263930,0.141740,0.156403
0.351906,0.136852,0.151515
0.234604,0.136852,0.156403
0.259042,0.136852,0.156403
0.239492,0.136852,0.156403
0.234604,0.131965,0.161290
0.229717,0.141740,0.156403
0.195503,0.146628,0.161290
0.200391,0.210166,0.185728
0.293255,2.883675,0.620723
0.454545,4.501466,1.300098
0.537634,4.496579,1.290323
0.469208,4.501466,1.089932
0.259042,3.035191,0.640274
0.190616,1.173021,0.322581
0.474096,0.689150,0.268817
1.539589,0.620723,0.268817
1.319648,0.454545,0.224829
1.495601,0.478983,0.200391
0.987292,0.288368,0.171065
0.566960,0.180841,0.156403
0.317693,0.171065,0.146628
0.337243,0.146628,0.161290
0.361681,0.136852,0.161290
0.273705,0.131965,0.156403
0.244379,0.136852,0.151515
0.249267,0.136852,0.151515
0.386119,0.136852,0.161290
0.322581,0.136852,0.156403
0.283480,0.131965,0.151515
0.312805,0.131965,0.156403
0.224829,0.131965,0.151515
0.200391,0.131965,0.156403
0.190616,0.136852,0.151515
0.166178,0.131965,0.151515
0.224829,1.495601,0.283480
0.425220,3.445748,0.850440
0.620723,4.496579,2.057674
1.021505,4.501466,1.539589
0.620723,4.491691,1.187683
0.322581,2.091887,0.571848
0.786901,0.948192,0.312805
1.197458,0.767351,0.263930
1.412512,0.664712,0.219941
1.358749,0.474096,0.190616
0.928641,0.391007,0.171065
0.786901,0.283480,0.166178
0.562072,0.317693,0.156403
0.654936,0.263930,0.156403
0.434995,0.180841,0.156403
0.537634,0.161290,0.151515
0.356794,0.156403,0.156403
0.351906,0.141740,0.151515
0.229717,0.161290,0.151515
0.298143,0.166178,0.156403
0.288368,0.185728,0.156403
0.273705,0.156403,0.161290
0.249267,0.136852,0.156403
0.312805,0.146628,0.156403
0.298143,0.474096,0.171065
0.483871,4.496579,0.782014
0.645161,4.496579,0.997067
0.850440,4.501466,1.490714
0.571848,4.496579,1.124145
0.386119,2.277615,0.532747
1.192571,1.109482,0.342131
1.725318,0.933529,0.278592
1.544477,0.650049,0.239492
1.177908,0.513196,0.195503
0.889541,0.303030,0.175953
0.400782,0.205279,0.161290
0.293255,0.195503,0.151515
0.224829,0.161290,0.156403
0.166178,0.141740,0.151515
0.161290,0.136852,0.146628
0.156403,0.136852,0.151515
0.151515,0.131965,0.146628
0.151515,0.131965,0.151515
0.156403,0.136852,0.156403
0.156403,0.146628,0.151515
0.175953,0.136852,0.156403
0.166178,0.136852,0.156403
0.175953,0.156403,0.156403
0.180841,0.889541,0.205279
0.351906,3.587488,0.532747
0.806452,4.501466,1.759531
0.684262,4.496579,1.534702
0.483871,4.501466,1.358749
0.254154,2.746823,0.586510
0.415445,1.260997,0.322581
1.065494,0.796676,0.239492
1.524927,0.532747,0.229717
1.094819,0.557185,0.224829
1.138807,0.391007,0.180841
0.874878,0.303030,0.166178
0.694037,0.219941,0.161290
0.356794,0.161290,0.151515
0.239492,0.146628,0.156403
0.469208,0.161290,0.161290
0.386119,0.141740,0.156403
0.400782,0.161290,0.156403
0.239492,0.141740,0.156403
0.229717,0.146628,0.151515
0.263930,0.136852,0.166178
0.215054,0.171065,0.161290
0.322581,0.156403,0.156403
0.268817,0.146628,0.161290
0.254154,0.161290,0.156403
0.342131,0.151515,0.156403
0.215054,0.146628,0.156403
0.180841,0.332356,0.171065
0.518084,2.570870,0.532747
0.610948,4.501466,1.378299
0.478983,4.491691,0.928641
0.386119,3.460411,0.645161
0.224829,1.304985,0.322581
0.263930,0.674487,0.219941
0.982405,0.488759,0.239492
3.176931,0.522972,0.298143
1.852395,0.542522,0.205279
0.899316,0.288368,0.175953
0.439883,0.190616,0.161290
0.273705,0.161290,0.151515
0.337243,0.141740,0.156403
0.224829,0.136852,0.156403
0.356794,0.141740,0.151515
0.215054,0.136852,0.151515
0.175953,0.131965,0.151515
0.175953,0.136852,0.151515
0.175953,0.136852,0.156403
0.224829,0.161290,0.175953
0.371457,0.146628,0.185728
0.381232,0.141740,0.166178
0.288368,0.146628,0.156403
0.205279,0.136852,0.156403
0.210166,0.131965,0.151515
0.669599,0.151515,0.151515
0.415445,0.141740,0.151515
0.718475,0.171065,0.156403
0.361681,0.146628,0.151515
0.610948,0.254154,0.185728
0.566960,2.580645,0.801564
0.782014,4.496579,1.133920
0.469208,4.496579,1.031281
0.259042,1.925709,0.454545
0.356794,0.772239,0.254154
0.850440,0.483871,0.224829
1.720430,0.664712,0.215054
1.749756,0.542522,0.229717
1.388074,0.547410,0.210166
0.703812,0.273705,0.171065
0.386119,0.210166,0.161290
0.229717,0.171065,0.156403
0.175953,0.146628,0.146628
0.171065,0.161290,0.161290
0.141740,0.146628,0.156403
0.156403,0.161290,0.156403
0.166178,0.156403,0.156403
0.151515,0.166178,0.156403
0.190616,0.180841,0.161290
0.156403,0.190616,0.171065
0.171065,0.161290,0.166178
0.166178,0.146628,0.161290
0.166178,0.136852,0.156403
0.195503,0.141740,0.175953
0.190616,0.215054,0.166178
0.254154,0.244379,0.180841
0.278592,0.410557,0.200391
0.293255,0.263930,0.205279
0.244379,0.293255,0.669599
1.099707,0.391007,4.848485
0.801564,0.259042,4.824047
1.207234,0.200391,4.809384
1.348974,0.254154,4.809384
1.304985,0.185728,4.809384
1.407625,0.166178,4.819159
1.593353,0.161290,4.809384
1.368524,0.146628,4.809384
1.407625,0.195503,4.804497
1.353861,0.166178,4.809384
1.417400,0.180841,4.799609
0.909091,0.229717,4.809384
0.933529,0.171065,4.809384
1.036168,0.156403,4.809384
1.363636,0.175953,4.804497
1.300098,0.166178,4.809384
1.197458,0.254154,4.804497
1.187683,0.200391,4.809384
1.695992,0.171065,4.804497
1.212121,0.175953,4.804497
1.412512,0.215054,4.814272
1.089932,0.190616,4.799609
1.348974,0.259042,4.799609
1.016618,0.195503,4.799609
1.627566,0.254154,4.799609
1.329423,0.244379,4.799609
1.099707,0.293255,4.799609
1.392962,0.347019,4.794721
1.329423,0.469208,4.799609
1.163245,0.444770,4.799609
1.182796,0.371457,4.794721
1.695992,0.371457,4.799609
1.089932,0.307918,4.799609
1.138807,0.273705,4.794721
1.109482,0.371457,4.799609
0.865103,0.386119,4.794721
1.109482,0.395894,4.804497
0.869990,0.415445,4.794721
0.869990,0.337243,4.799609
0.845552,0.498534,4.794721
0.650049,0.650049,4.799609
