emg1,emg2,emg3
0.972630,0.210166,0.205279
1.031281,0.782014,0.185728
0.997067,0.371457,0.175953
0.977517,0.224829,0.171065
0.962854,0.171065,0.161290
0.967742,0.156403,0.171065
0.967742,0.141740,0.161290
0.967742,0.141740,0.156403
0.957967,0.141740,0.171065
0.957967,0.136852,0.156403
0.957967,0.136852,0.146628
0.953079,0.136852,0.156403
0.967742,0.136852,0.151515
0.957967,0.136852,0.156403
0.953079,0.136852,0.151515
0.967742,0.136852,0.151515
0.972630,0.131965,0.151515
0.962854,0.136852,0.151515
0.967742,0.136852,0.146628
0.977517,0.141740,0.156403
1.031281,1.045943,0.175953
1.016618,0.566960,0.166178
0.977517,0.278592,0.156403
0.967742,0.175953,0.151515
0.962854,0.146628,0.151515
1.026393,1.060606,0.322581
1.001955,0.449658,0.210166
0.997067,0.239492,0.171065
0.977517,0.166178,0.156403
0.967742,0.146628,0.156403
0.967742,0.136852,0.151515
0.962854,0.136852,0.156403
0.967742,0.131965,0.151515
0.962854,0.136852,0.151515
0.972630,0.131965,0.161290
0.957967,0.136852,0.156403
0.957967,0.131965,0.151515
0.967742,0.131965,0.146628
0.967742,0.131965,0.156403
0.972630,0.131965,0.166178
0.967742,0.131965,0.161290
0.972630,0.136852,0.156403
0.967742,0.131965,0.166178
0.972630,0.131965,0.156403
0.972630,0.136852,0.156403
0.972630,0.131965,0.156403
0.967742,0.136852,0.156403
0.977517,0.131965,0.175953
0.972630,0.136852,0.171065
0.972630,0.156403,0.180841
1.011730,0.659824,0.322581
1.265885,3.861193,0.918866
1.388074,4.496579,2.316716
1.432063,4.496579,2.174976
1.456500,4.496579,2.443793
1.427175,4.496579,1.818182
1.417400,4.501466,1.564027
1.397849,4.496579,1.441838
1.446725,4.501466,2.003910
1.461388,4.496579,1.989247
1.461388,4.496579,1.862170
1.471163,4.496579,2.277615
1.466276,4.496579,2.057674
1.476051,4.496579,2.062561
1.480938,4.501466,2.130987
1.490714,4.501466,2.101662
1.456500,4.496579,1.700880
1.466276,4.496579,2.277615
1.466276,4.496579,2.082111
1.446725,4.501466,1.598240
1.451613,4.496579,1.388074
1.456500,4.496579,1.549365
1.456500,4.496579,1.559140
1.451613,4.491691,1.446725
1.456500,4.501466,1.456500
1.456500,4.496579,1.417400
1.456500,4.491691,1.270772
1.432063,4.012708,1.187683
1.427175,3.646139,1.173021
1.476051,4.159335,1.295210
1.510264,4.486804,0.962854
1.529814,4.418377,1.119257
1.524927,4.105572,1.006843
1.500489,3.655914,1.099707
1.554252,4.066471,0.987292
1.490714,3.563050,0.840665
1.378299,2.722385,0.826002
1.500489,4.027370,0.752688
1.485826,3.753666,0.816227
1.524927,4.252199,0.953079
1.505376,3.734115,0.972630
1.490714,3.978495,0.918866
1.515152,4.037146,0.816227
1.549365,4.403715,0.874878
1.446725,3.401760,0.752688
1.485826,3.939394,0.816227
1.461388,3.577713,0.791789
1.505376,4.193548,0.904203
1.539589,4.496579,1.124145
1.485826,3.787879,0.835777
1.427175,3.230694,0.869990
1.466276,3.807429,1.006843
1.427175,3.690127,1.070381
1.480938,4.462366,0.879765
1.441838,3.670577,0.860215
1.407625,3.421310,1.011730
1.378299,3.450635,0.879765
1.334311,3.084066,0.845552
1.427175,4.496579,0.889541
1.427175,4.076246,0.742913
1.373412,3.421310,0.620723
1.392962,3.607038,0.943304
1.417400,4.071359,0.679374
1.402737,3.753666,0.742913
1.353861,3.220919,0.938416
1.275660,2.766373,0.664712
1.304985,3.074291,0.596285
1.319648,3.167155,0.806452
1.251222,2.551320,0.645161
1.226784,2.253177,0.742913
1.280547,3.147605,0.772239
1.300098,3.191593,0.669599
1.295210,3.000978,0.684262
1.260997,2.741935,0.581623
1.329423,3.543500,0.689150
1.368524,3.699902,0.782014
1.334311,3.216031,0.742913
1.339198,3.284457,0.909091
1.280547,2.888563,0.752688
1.309873,3.313783,0.796676
1.397849,4.335288,0.899316
1.392962,4.012708,0.698925
1.353861,3.597263,0.757576
1.300098,3.137830,0.610948
1.260997,2.932551,0.566960
1.275660,3.084066,0.591398
1.251222,2.717498,0.610948
1.221896,2.639296,0.444770
1.212121,2.443793,0.537634
1.270772,3.132942,0.635386
1.270772,3.152493,0.650049
1.236559,2.663734,0.747801
1.251222,3.010753,0.596285
1.221896,2.565982,0.752688
1.202346,2.414467,0.581623
1.260997,3.010753,0.689150
1.177908,1.945259,0.518084
1.173021,2.086999,0.522972
1.217009,2.820137,0.620723
1.251222,2.883675,0.620723
1.329423,3.988270,0.752688
1.363636,3.905181,0.728250
1.339198,3.587488,0.654936
1.309873,3.260020,0.566960
1.275660,3.035191,0.669599
1.392962,4.379277,0.640274
1.324536,3.294233,0.826002
1.319648,3.338221,0.654936
1.358749,3.782991,0.747801
1.319648,3.377322,0.762463
1.348974,3.641251,0.786901
1.304985,3.367546,0.855327
1.300098,3.338221,0.806452
1.300098,3.489736,0.835777
1.368524,4.296188,0.762463
1.295210,3.191593,0.845552
1.275660,3.079179,0.855327
1.300098,3.416422,0.840665
1.324536,3.494624,0.948192
1.329423,3.563050,0.879765
1.334311,3.680352,0.918866
1.300098,3.118280,0.840665
1.324536,3.460411,0.869990
1.270772,2.913001,0.733138
1.285435,3.069404,0.874878
1.270772,2.996090,0.879765
1.324536,3.587488,0.894428
1.300098,3.157380,0.811339
1.329423,3.416422,0.782014
1.280547,3.098729,0.786901
1.334311,3.651026,0.772239
1.378299,4.086022,0.679374
1.304985,3.132942,0.879765
1.217009,2.336266,0.694037
1.290323,3.343109,0.654936
1.319648,3.582600,0.874878
1.373412,4.046921,1.031281
1.461388,4.481916,1.041056
1.476051,4.467253,0.894428
1.495601,4.491691,0.992180
1.500489,4.491691,0.972630
1.446725,3.665689,0.957967
1.383187,3.391984,0.894428
1.456500,4.110459,1.197458
1.505376,4.486804,1.143695
1.524927,4.486804,1.055718
1.510264,4.496579,0.909091
1.515152,4.496579,0.982405
1.524927,4.496579,1.094819
1.529814,4.496579,1.129032
1.544477,4.486804,1.207234
1.515152,4.149560,1.290323
1.520039,4.491691,1.309873
1.510264,4.496579,1.177908
1.500489,4.491691,0.943304
1.505376,4.491691,0.909091
1.495601,4.491691,0.923754
1.495601,4.491691,0.928641
1.476051,4.354839,0.879765
1.407625,3.753666,0.904203
1.290323,2.702835,0.938416
1.290323,3.118280,0.791789
1.329423,3.597263,0.899316
1.432063,4.491691,0.992180
1.471163,4.491691,1.104594
1.476051,4.491691,0.767351
1.505376,4.496579,1.026393
1.505376,4.496579,1.104594
1.495601,4.252199,1.124145
1.402737,3.553275,0.738025
1.466276,4.213099,0.962854
1.383187,3.528837,0.772239
1.461388,4.486804,0.659824
1.490714,4.491691,0.884653
1.505376,4.491691,1.016618
1.471163,4.359726,0.791789
1.495601,4.491691,0.923754
1.490714,4.491691,0.972630
1.456500,4.164223,0.962854
1.436950,4.203324,1.114370
1.412512,3.675464,1.011730
1.368524,3.431085,1.036168
1.456500,4.491691,0.977517
1.412512,3.748778,0.933529
1.412512,4.027370,1.104594
1.412512,3.963832,1.114370
1.412512,3.919844,1.060606
1.314761,3.088954,0.869990
1.241447,2.600196,0.645161
1.280547,3.260020,0.953079
1.339198,3.695015,1.045943
1.427175,4.486804,1.006843
1.466276,4.491691,1.265885
1.471163,4.491691,1.124145
1.471163,4.457478,1.075269
1.485826,4.491691,1.319648
1.485826,4.496579,1.265885
1.490714,4.496579,1.456500
1.485826,4.496579,1.011730
1.485826,4.496579,0.962854
1.490714,4.491691,1.109482
1.495601,4.496579,1.173021
1.480938,4.286413,1.094819
1.461388,4.296188,1.026393
1.495601,4.496579,1.089932
1.441838,3.782991,0.855327
1.466276,4.193548,1.304985
1.490714,4.491691,1.143695
1.495601,4.496579,1.236559
1.510264,4.496579,1.476051
1.456500,4.022483,0.904203
1.451613,4.100684,0.913978
1.368524,3.333333,0.899316
1.270772,2.644184,0.811339
1.192571,2.174976,0.640274
1.246334,2.932551,0.684262
1.256109,3.010753,0.835777
1.309873,3.391984,0.943304
1.304985,3.523949,0.909091
1.251222,2.693060,0.747801
1.129032,1.534702,0.640274
1.075269,1.192571,0.439883
1.133920,2.052786,0.508309
1.207234,2.732160,0.811339
1.177908,2.375367,0.615836
1.075269,1.055718,0.366569
1.006843,0.439883,0.224829
0.997067,0.239492,0.175953
0.997067,0.166178,0.161290
0.982405,0.141740,0.151515
0.957967,0.136852,0.195503
0.962854,0.131965,0.171065
0.967742,0.131965,0.156403
0.977517,0.131965,0.151515
0.977517,0.136852,0.151515
0.972630,0.136852,0.151515
0.972630,0.136852,0.146628
0.972630,0.136852,0.146628
0.967742,0.136852,0.151515
0.967742,0.131965,0.146628
0.967742,0.136852,0.156403
0.972630,0.131965,0.146628
0.967742,0.136852,0.151515
0.977517,0.136852,0.151515
0.972630,0.136852,0.146628
0.967742,0.131965,0.151515
0.972630,0.136852,0.151515
0.977517,0.131965,0.151515
0.972630,0.136852,0.151515
0.982405,0.136852,0.151515
0.977517,0.136852,0.151515
0.982405,0.136852,0.151515
0.967742,0.127077,0.151515
0.972630,0.131965,0.146628
0.967742,0.131965,0.151515
0.967742,0.131965,0.151515
0.967742,0.136852,0.151515
0.967742,0.131965,0.151515
0.967742,0.131965,0.151515
0.967742,0.131965,0.151515
0.967742,0.131965,0.151515
0.967742,0.131965,0.146628
0.972630,0.131965,0.146628
0.967742,0.131965,0.151515
0.967742,0.131965,0.151515
0.967742,0.131965,0.146628
0.967742,0.136852,0.146628
0.967742,0.136852,0.151515
0.967742,0.131965,0.146628
0.977517,0.136852,0.146628
0.972630,0.131965,0.151515
0.972630,0.131965,0.151515
0.982405,0.131965,0.151515
0.977517,0.131965,0.146628
0.982405,0.131965,0.151515
0.982405,0.136852,0.151515
0.977517,0.127077,0.151515
0.982405,0.136852,0.156403
0.987292,0.136852,0.156403
0.977517,0.131965,0.156403
0.972630,0.127077,0.151515
0.977517,0.131965,0.151515
0.982405,0.131965,0.151515
0.982405,0.200391,0.151515
0.982405,0.180841,0.166178
1.124145,1.930596,0.547410
1.314761,3.641251,0.948192
1.485826,4.496579,1.984360
1.559140,4.496579,2.003910
1.578690,4.496579,2.057674
1.603128,4.496579,2.346041
1.598240,4.501466,2.297165
1.622678,4.496579,2.316716
1.603128,4.496579,1.979472
1.612903,4.496579,2.228739
1.598240,4.496579,1.749756
1.608016,4.496579,2.130987
1.598240,4.496579,1.725318
1.617791,4.501466,1.827957
1.603128,4.496579,1.378299
1.593353,4.496579,1.480938
1.583578,4.301075,1.471163
1.520039,3.826979,1.314761
1.476051,3.460411,1.221896
1.412512,3.264907,1.226784
1.524927,4.496579,1.344086
1.564027,4.496579,1.285435
1.588465,4.491691,1.314761
1.622678,4.496579,1.686217
1.637341,4.496579,1.339198
1.656891,4.496579,1.212121
1.661779,4.491691,0.977517
1.656891,4.340176,1.158358
1.647116,4.051808,1.148583
1.671554,4.491691,1.099707
1.632454,4.032258,0.957967
1.583578,4.090909,1.031281
1.573803,3.866080,1.256109
1.520039,3.352884,0.977517
1.549365,3.597263,0.948192
1.583578,3.851417,1.006843
1.598240,3.939394,1.177908
1.490714,3.128055,0.840665
1.520039,3.460411,0.855327
1.495601,3.475073,1.109482
1.578690,4.496579,1.089932
1.578690,4.183773,0.957967
1.544477,3.739003,1.334311
1.549365,3.919844,1.671554
1.539589,3.919844,1.671554
1.529814,3.611926,1.495601
1.456500,3.172043,1.265885
1.436950,3.372434,1.314761
1.397849,3.304008,1.153470
1.392962,3.460411,1.119257
1.397849,3.230694,1.089932
1.461388,4.100684,0.909091
1.402737,3.299120,0.869990
1.358749,3.079179,0.777126
1.378299,3.250244,0.913978
1.456500,3.968719,1.001955
1.412512,3.186706,1.055718
1.412512,3.382209,0.752688
1.358749,2.883675,0.982405
1.378299,3.416422,1.129032
1.353861,2.903226,0.953079
1.436950,4.081134,0.923754
1.456500,3.611926,0.879765
1.529814,4.134897,0.733138
1.534702,4.130010,0.967742
1.446725,3.147605,1.187683
1.446725,3.333333,1.021505
1.505376,3.836755,1.251222
1.432063,2.834800,0.962854
1.515152,4.496579,1.021505
1.549365,4.491691,0.967742
1.559140,4.467253,1.006843
1.461388,3.401760,0.791789
1.480938,3.998045,0.772239
1.505376,4.491691,0.899316
1.534702,4.491691,0.938416
1.412512,3.201369,0.904203
1.451613,3.641251,0.967742
1.471163,3.875855,0.997067
1.485826,3.905181,1.050831
1.461388,3.343109,1.085044
1.471163,3.577713,0.992180
1.373412,2.673509,0.786901
1.300098,2.443793,0.757576
1.256109,2.091887,0.645161
1.285435,2.658847,0.772239
1.378299,3.377322,0.747801
1.485826,3.866080,1.270772
1.490714,3.831867,1.109482
1.388074,2.825024,1.026393
1.436950,3.528837,0.865103
1.490714,4.007820,0.752688
1.471163,3.460411,0.752688
1.534702,4.491691,1.006843
1.480938,3.377322,0.948192
1.456500,3.460411,0.899316
1.471163,3.543500,1.065494
1.568915,4.389052,1.031281
1.529814,4.217986,0.879765
1.422287,2.996090,0.703812
1.397849,3.000978,0.957967
1.407625,3.528837,1.041056
1.407625,3.695015,0.786901
1.348974,3.010753,1.031281
1.466276,4.491691,0.899316
1.495601,4.491691,0.860215
1.427175,3.509286,1.133920
1.417400,3.714565,0.948192
1.378299,3.284457,0.840665
1.344086,3.108504,0.694037
1.304985,2.908113,0.713587
1.304985,2.678397,0.821114
1.290323,2.741935,1.143695
1.314761,3.044966,0.928641
1.256109,2.717498,0.708700
1.153470,1.593353,0.478983
1.036168,0.689150,0.371457
0.997067,0.361681,0.254154
1.006843,0.454545,0.210166
1.016618,0.532747,0.249267
1.031281,0.645161,0.244379
1.045943,0.923754,0.307918
1.026393,0.620723,0.288368
0.987292,0.386119,0.210166
0.982405,0.219941,0.171065
0.972630,0.166178,0.156403
0.972630,0.141740,0.151515
0.962854,0.131965,0.151515
0.957967,0.131965,0.146628
0.953079,0.131965,0.146628
0.957967,0.127077,0.146628
0.972630,0.131965,0.146628
0.972630,0.136852,0.151515
0.977517,0.136852,0.151515
0.967742,0.136852,0.146628
0.967742,0.127077,0.146628
0.967742,0.136852,0.146628
0.977517,0.136852,0.146628
0.977517,0.136852,0.151515
0.972630,0.131965,0.156403
0.967742,0.136852,0.151515
0.972630,0.131965,0.151515
0.967742,0.136852,0.146628
0.972630,0.131965,0.151515
0.977517,0.136852,0.151515
0.972630,0.131965,0.146628
0.977517,0.131965,0.151515
0.972630,0.136852,0.151515
0.962854,0.131965,0.151515
0.967742,0.141740,0.151515
0.977517,0.131965,0.146628
0.967742,0.131965,0.156403
0.967742,0.131965,0.156403
0.977517,0.131965,0.146628
0.967742,0.131965,0.151515
0.972630,0.131965,0.151515
0.967742,0.131965,0.146628
0.967742,0.136852,0.151515
0.972630,0.136852,0.151515
0.977517,0.131965,0.151515
0.972630,0.131965,0.151515
0.977517,0.131965,0.151515
0.972630,0.131965,0.151515
0.977517,0.131965,0.151515
0.972630,0.131965,0.151515
0.977517,0.131965,0.151515
0.977517,0.131965,0.146628
0.972630,0.136852,0.156403
0.982405,0.131965,0.151515
0.972630,0.131965,0.156403
0.977517,0.131965,0.151515
0.972630,0.131965,0.151515
0.967742,0.136852,0.151515
0.972630,0.131965,0.151515
0.972630,0.136852,0.156403
1.070381,1.309873,0.547410
1.407625,4.501466,2.008798
1.441838,4.501466,2.590420
1.510264,4.496579,2.394917
1.505376,4.501466,2.825024
1.520039,4.496579,2.184751
1.515152,4.496579,1.666667
1.573803,4.496579,2.077224
1.617791,4.496579,2.390029
1.627566,4.496579,2.165200
1.622678,4.501466,1.857283
1.632454,4.496579,1.808407
1.686217,4.496579,2.531769
1.749756,4.496579,3.103617
1.749756,4.501466,2.883675
1.749756,4.501466,2.502444
1.735093,4.496579,2.184751
1.705767,4.496579,1.671554
1.671554,4.491691,1.319648
1.676442,4.496579,2.204301
1.671554,4.496579,2.326491
1.642229,4.496579,1.901271
1.617791,4.496579,1.798631
1.632454,4.496579,1.969697
1.593353,4.501466,1.466276
1.598240,4.491691,1.456500
1.583578,4.496579,1.495601
1.583578,4.496579,1.598240
1.564027,4.496579,1.378299
1.554252,4.496579,1.256109
1.554252,4.496579,1.666667
1.505376,4.281525,0.992180
1.520039,4.491691,1.495601
1.515152,4.496579,1.402737
1.524927,4.491691,1.236559
1.505376,4.389052,1.133920
1.539589,4.491691,1.363636
1.520039,4.496579,1.119257
1.524927,4.501466,1.187683
1.529814,4.437928,1.070381
1.466276,3.768328,0.953079
1.417400,3.543500,1.026393
1.505376,4.491691,1.192571
1.524927,4.496579,1.124145
1.461388,3.670577,1.104594
1.441838,3.543500,1.119257
1.529814,4.491691,1.202346
1.495601,4.002933,1.001955
1.417400,3.382209,0.943304
1.388074,3.015640,1.226784
1.510264,4.310850,1.050831
1.461388,3.651026,1.138807
1.485826,4.154448,0.918866
1.520039,4.496579,0.889541
1.515152,4.486804,0.928641
1.441838,3.567937,0.738025
1.334311,2.668622,1.094819
1.339198,3.372434,0.962854
1.348974,3.406647,0.957967
1.334311,3.264907,0.943304
1.368524,3.592375,1.045943
1.358749,3.572825,0.894428
1.402737,3.954057,0.987292
1.466276,4.486804,0.953079
1.436950,3.919844,1.148583
1.466276,4.017595,1.006843
1.334311,2.697947,0.855327
1.339198,3.049853,1.075269
1.290323,2.732160,0.938416
1.300098,3.167155,0.967742
1.251222,2.521994,1.075269
1.339198,3.582600,0.972630
1.300098,2.893451,0.772239
1.192571,1.808407,0.698925
1.241447,2.468231,0.733138
1.231672,2.565982,0.615836
1.173021,1.769306,0.694037
1.251222,2.932551,0.620723
1.295210,3.176931,0.879765
1.392962,4.115347,1.001955
1.334311,3.274682,0.904203
1.339198,3.230694,1.192571
1.388074,3.856305,0.889541
1.309873,2.981427,0.953079
1.314761,3.059629,0.962854
1.275660,2.952102,0.684262
1.412512,4.393939,0.987292
1.314761,3.308895,0.928641
1.207234,2.086999,0.630499
1.290323,2.864125,0.899316
1.407625,4.232649,0.987292
1.383187,3.685239,0.850440
1.280547,2.580645,0.752688
1.217009,2.204301,0.654936
1.173021,1.896383,0.620723
1.265885,3.044966,0.620723
1.319648,3.607038,0.718475
1.319648,3.260020,1.031281
1.363636,3.670577,0.987292
1.412512,4.090909,0.869990
1.436950,3.988270,0.894428
1.378299,3.489736,0.943304
1.353861,3.304008,0.967742
1.344086,3.255132,1.177908
1.456500,4.496579,1.114370
1.476051,4.496579,1.036168
1.495601,4.491691,1.241447
1.471163,4.281525,1.094819
1.368524,3.220919,1.041056
1.324536,2.839687,0.874878
1.304985,3.123167,0.909091
1.427175,4.472141,1.104594
1.329423,3.167155,0.913978
1.373412,3.782991,0.923754
1.334311,3.367546,1.026393
1.417400,4.491691,1.129032
1.451613,4.486804,1.045943
1.456500,4.496579,1.065494
1.466276,4.496579,1.094819
1.446725,4.301075,0.972630
1.388074,3.587488,0.889541
1.422287,4.281525,1.256109
1.446725,4.301075,1.173021
1.373412,3.602151,0.738025
1.402737,4.046921,1.026393
1.363636,3.802542,0.801564
1.309873,3.000978,0.830890
1.304985,2.976540,0.855327
1.422287,4.086022,1.451613
1.471163,4.496579,1.334311
1.427175,3.929619,0.977517
1.368524,3.406647,1.026393
1.427175,4.227761,1.270772
1.212121,1.842620,0.630499
1.246334,2.697947,0.630499
1.182796,2.018573,0.733138
1.436950,4.491691,1.192571
1.485826,4.496579,1.295210
1.505376,4.496579,1.583578
1.500489,4.491691,1.114370
1.446725,3.851417,0.938416
1.490714,4.501466,0.948192
1.490714,4.491691,1.045943
1.407625,3.509286,0.850440
1.480938,4.496579,1.085044
1.490714,4.496579,1.207234
1.500489,4.496579,1.461388
1.505376,4.496579,1.466276
1.407625,3.440860,1.041056
1.221896,2.013685,0.669599
1.070381,0.835777,0.351906
1.026393,0.571848,0.268817
1.016618,0.645161,0.273705
1.001955,0.464321,0.263930
1.026393,0.742913,0.234604
1.075269,1.187683,0.478983
1.148583,1.612903,0.488759
1.085044,0.913978,0.273705
1.006843,0.420332,0.195503
0.982405,0.278592,0.166178
0.962854,0.185728,0.156403
0.967742,0.180841,0.156403
0.967742,0.171065,0.156403
0.967742,0.190616,0.175953
0.972630,0.175953,0.161290
0.992180,0.161290,0.161290
0.997067,0.151515,0.156403
0.987292,0.141740,0.156403
0.992180,0.136852,0.151515
0.992180,0.136852,0.151515
0.997067,0.136852,0.151515
0.997067,0.141740,0.151515
0.992180,0.136852,0.151515
0.987292,0.131965,0.151515
0.987292,0.131965,0.151515
0.977517,0.136852,0.151515
0.987292,0.136852,0.146628
0.977517,0.131965,0.151515
0.982405,0.131965,0.151515
0.987292,0.131965,0.141740
0.977517,0.131965,0.151515
0.977517,0.131965,0.151515
0.977517,0.136852,0.151515
0.977517,0.131965,0.151515
0.982405,0.131965,0.156403
0.987292,0.131965,0.146628
0.987292,0.131965,0.151515
0.997067,0.136852,0.151515
0.997067,0.141740,0.146628
0.987292,0.131965,0.146628
0.982405,0.136852,0.151515
0.987292,0.136852,0.151515
0.992180,0.131965,0.151515
1.001955,0.131965,0.151515
0.997067,0.131965,0.151515
0.987292,0.131965,0.146628
0.982405,0.136852,0.151515
0.972630,0.131965,0.151515
0.948192,0.136852,0.151515
0.943304,0.136852,0.151515
0.962854,0.131965,0.151515
0.972630,0.131965,0.151515
0.982405,0.131965,0.146628
0.987292,0.131965,0.151515
0.977517,0.141740,0.151515
0.987292,0.146628,0.151515
0.987292,0.141740,0.151515
0.987292,0.136852,0.146628
0.997067,0.136852,0.146628
0.987292,0.131965,0.146628
0.972630,0.131965,0.151515
0.977517,0.131965,0.151515
0.982405,0.131965,0.151515
0.987292,0.131965,0.151515
