emg1,emg2,emg3
4.496579,0.200391,0.210166
4.501466,0.210166,0.175953
4.496579,0.185728,0.166178
4.496579,0.180841,0.161290
4.501466,0.195503,0.171065
4.501466,0.190616,0.166178
4.501466,0.185728,0.156403
4.496579,0.156403,0.151515
3.890518,0.141740,0.151515
1.412512,0.136852,0.151515
0.571848,0.146628,0.151515
0.288368,0.141740,0.151515
0.190616,0.136852,0.156403
0.161290,0.146628,0.156403
0.146628,0.146628,0.161290
0.156403,0.141740,0.161290
0.156403,0.136852,0.156403
0.229717,0.131965,0.156403
0.263930,0.136852,0.151515
0.322581,0.131965,0.151515
0.259042,0.136852,0.156403
0.185728,0.136852,0.151515
0.156403,0.146628,0.151515
0.263930,0.136852,0.146628
0.493646,0.136852,0.156403
0.635386,0.146628,0.156403
0.650049,0.136852,0.161290
0.332356,0.131965,0.156403
0.224829,0.131965,0.151515
0.175953,0.136852,0.151515
0.156403,0.136852,0.146628
0.151515,0.141740,0.151515
0.146628,0.136852,0.151515
0.141740,0.136852,0.146628
0.146628,0.131965,0.151515
0.141740,0.136852,0.151515
0.141740,0.131965,0.151515
0.141740,0.131965,0.146628
0.146628,0.131965,0.146628
0.141740,0.136852,0.151515
0.141740,0.136852,0.151515
0.141740,0.136852,0.151515
0.146628,0.141740,0.146628
0.146628,0.136852,0.146628
0.141740,0.136852,0.151515
0.146628,0.136852,0.156403
0.141740,0.136852,0.146628
0.146628,0.141740,0.151515
0.146628,0.136852,0.146628
0.141740,0.136852,0.146628
0.141740,0.136852,0.156403
0.141740,0.131965,0.151515
0.141740,0.131965,0.151515
0.141740,0.131965,0.151515
0.146628,0.136852,0.151515
0.141740,0.131965,0.151515
0.146628,0.131965,0.151515
0.136852,0.136852,0.146628
0.141740,0.131965,0.146628
0.141740,0.136852,0.156403
0.141740,0.131965,0.146628
0.141740,0.136852,0.151515
0.146628,0.136852,0.146628
0.146628,0.136852,0.146628
0.141740,0.136852,0.151515
0.141740,0.131965,0.146628
0.146628,0.136852,0.146628
0.141740,0.136852,0.151515
0.146628,0.136852,0.146628
0.141740,0.146628,0.146628
0.146628,0.141740,0.151515
0.141740,0.136852,0.151515
0.141740,0.156403,0.156403
0.141740,0.156403,0.156403
0.141740,0.146628,0.151515
0.146628,0.136852,0.151515
0.141740,0.136852,0.151515
0.146628,0.136852,0.151515
0.141740,0.136852,0.151515
0.141740,0.136852,0.151515
0.146628,0.136852,0.146628
0.136852,0.141740,0.151515
0.141740,0.136852,0.146628
0.136852,0.131965,0.146628
0.146628,0.136852,0.151515
0.141740,0.136852,0.151515
0.342131,0.156403,0.151515
1.173021,0.185728,0.156403
1.510264,0.219941,0.166178
2.145650,0.200391,0.161290
2.165200,0.180841,0.161290
1.759531,0.156403,0.156403
1.153470,0.141740,0.156403
0.674487,0.136852,0.161290
0.757576,0.146628,0.151515
0.410557,0.136852,0.151515
0.224829,0.136852,0.146628
0.171065,0.141740,0.156403
0.156403,0.136852,0.146628
0.146628,0.141740,0.146628
0.141740,0.136852,0.146628
0.141740,0.136852,0.146628
0.141740,0.136852,0.146628
0.171065,0.131965,0.146628
0.249267,0.136852,0.146628
0.601173,0.141740,0.151515
1.603128,0.166178,0.151515
1.427175,0.161290,0.146628
1.627566,0.156403,0.156403
1.490714,0.141740,0.146628
1.124145,0.136852,0.151515
0.738025,0.136852,0.151515
0.366569,0.136852,0.146628
0.439883,0.136852,0.146628
0.366569,0.136852,0.151515
0.361681,0.136852,0.146628
0.430108,0.136852,0.146628
0.307918,0.136852,0.151515
0.532747,0.136852,0.141740
0.444770,0.136852,0.151515
0.449658,0.151515,0.185728
0.527859,0.239492,0.293255
0.400782,0.312805,0.312805
0.659824,0.307918,0.244379
0.454545,0.234604,0.210166
0.356794,0.171065,0.171065
0.293255,0.146628,0.156403
0.508309,0.146628,0.151515
0.767351,0.151515,0.161290
0.650049,0.141740,0.156403
0.434995,0.136852,0.151515
0.522972,0.136852,0.151515
0.288368,0.131965,0.151515
0.312805,0.136852,0.151515
0.259042,0.131965,0.151515
0.268817,0.131965,0.146628
0.371457,0.141740,0.195503
0.410557,0.234604,0.273705
0.708700,0.283480,0.322581
0.659824,0.219941,0.219941
0.405670,0.166178,0.175953
0.391007,0.141740,0.156403
0.503421,0.146628,0.151515
0.547410,0.136852,0.151515
0.415445,0.146628,0.146628
0.459433,0.136852,0.146628
0.293255,0.136852,0.151515
0.224829,0.131965,0.146628
0.224829,0.131965,0.146628
0.234604,0.131965,0.146628
0.303030,0.136852,0.151515
0.322581,0.161290,0.171065
0.630499,0.215054,0.391007
0.381232,0.239492,0.317693
0.351906,0.200391,0.215054
0.263930,0.156403,0.166178
0.229717,0.136852,0.156403
0.268817,0.136852,0.156403
0.224829,0.136852,0.146628
0.224829,0.131965,0.151515
0.224829,0.131965,0.146628
0.200391,0.131965,0.146628
0.205279,0.136852,0.151515
0.219941,0.136852,0.151515
0.205279,0.136852,0.151515
0.219941,0.131965,0.151515
0.185728,0.136852,0.146628
0.283480,0.151515,0.239492
0.439883,0.723363,0.488759
1.163245,0.420332,0.307918
0.576735,0.249267,0.205279
0.454545,0.175953,0.171065
0.259042,0.146628,0.151515
0.283480,0.136852,0.151515
0.322581,0.131965,0.146628
0.332356,0.136852,0.146628
0.234604,0.136852,0.151515
0.219941,0.131965,0.151515
0.239492,0.136852,0.146628
0.224829,0.131965,0.146628
0.185728,0.131965,0.151515
0.215054,0.131965,0.146628
0.185728,0.127077,0.151515
0.195503,0.146628,0.161290
0.249267,0.244379,0.293255
0.337243,0.234604,0.254154
0.239492,0.171065,0.185728
0.234604,0.146628,0.161290
0.215054,0.136852,0.146628
0.298143,0.136852,0.156403
0.224829,0.136852,0.151515
0.185728,0.136852,0.151515
0.185728,0.131965,0.151515
0.180841,0.131965,0.146628
0.166178,0.131965,0.151515
0.185728,0.136852,0.146628
0.161290,0.131965,0.146628
0.185728,0.131965,0.146628
0.234604,0.131965,0.146628
0.180841,0.131965,0.151515
0.239492,0.166178,0.171065
0.332356,0.283480,0.229717
0.259042,0.215054,0.205279
0.259042,0.166178,0.171065
0.195503,0.141740,0.161290
0.283480,0.136852,0.151515
0.312805,0.136852,0.151515
0.459433,0.141740,0.151515
0.645161,0.156403,0.151515
0.542522,0.146628,0.146628
0.562072,0.136852,0.151515
0.327468,0.141740,0.146628
0.259042,0.131965,0.151515
0.185728,0.136852,0.146628
0.185728,0.136852,0.146628
0.229717,0.136852,0.146628
0.229717,0.141740,0.171065
0.268817,0.254154,0.273705
0.322581,0.322581,0.307918
0.278592,0.229717,0.224829
0.219941,0.175953,0.175953
0.185728,0.141740,0.156403
0.195503,0.136852,0.156403
0.249267,0.131965,0.146628
0.259042,0.141740,0.146628
0.254154,0.131965,0.151515
0.205279,0.131965,0.151515
0.171065,0.131965,0.151515
0.175953,0.131965,0.146628
0.161290,0.131965,0.156403
0.200391,0.136852,0.146628
0.205279,0.136852,0.151515
0.283480,0.151515,0.156403
0.542522,0.298143,0.400782
0.620723,0.293255,0.366569
0.469208,0.259042,0.239492
0.283480,0.171065,0.175953
0.239492,0.146628,0.161290
0.371457,0.141740,0.156403
0.518084,0.141740,0.161290
0.371457,0.146628,0.156403
0.312805,0.136852,0.146628
0.278592,0.136852,0.156403
0.200391,0.131965,0.146628
0.263930,0.136852,0.146628
0.185728,0.131965,0.146628
0.180841,0.131965,0.146628
0.190616,0.136852,0.151515
0.239492,0.146628,0.156403
0.689150,0.371457,0.434995
0.537634,0.342131,0.376344
0.596285,0.249267,0.234604
0.337243,0.171065,0.175953
0.259042,0.146628,0.161290
0.566960,0.141740,0.151515
0.615836,0.171065,0.156403
0.552297,0.146628,0.151515
0.386119,0.141740,0.151515
0.391007,0.131965,0.146628
0.259042,0.131965,0.146628
0.288368,0.131965,0.151515
0.229717,0.127077,0.146628
0.312805,0.136852,0.146628
0.234604,0.131965,0.146628
0.366569,0.224829,0.205279
0.708700,0.615836,0.508309
0.830890,0.322581,0.342131
0.474096,0.195503,0.215054
0.317693,0.156403,0.171065
0.542522,0.151515,0.156403
0.840665,0.151515,0.161290
1.173021,0.166178,0.156403
2.785924,0.180841,0.156403
1.353861,0.156403,0.156403
0.694037,0.141740,0.146628
0.527859,0.136852,0.151515
0.576735,0.131965,0.146628
0.581623,0.136852,0.146628
0.586510,0.127077,0.151515
0.532747,0.131965,0.146628
0.669599,0.215054,0.376344
0.459433,0.522972,1.705767
0.752688,1.324536,2.297165
0.654936,0.562072,0.948192
0.562072,0.273705,0.415445
0.498534,0.180841,0.239492
0.835777,0.156403,0.180841
1.676442,0.156403,0.161290
1.578690,0.156403,0.151515
0.850440,0.136852,0.146628
0.733138,0.136852,0.146628
0.503421,0.131965,0.151515
0.620723,0.131965,0.151515
0.332356,0.131965,0.151515
0.518084,0.136852,0.151515
0.386119,0.131965,0.146628
0.522972,0.215054,0.464321
0.576735,1.045943,1.871945
0.645161,1.515152,1.852395
0.434995,0.615836,0.738025
0.400782,0.288368,0.342131
0.332356,0.185728,0.215054
0.801564,0.151515,0.171065
0.997067,0.146628,0.161290
0.899316,0.131965,0.151515
0.972630,0.131965,0.151515
0.957967,0.131965,0.146628
0.674487,0.131965,0.146628
0.645161,0.131965,0.146628
0.498534,0.131965,0.146628
0.439883,0.131965,0.146628
0.434995,0.136852,0.151515
0.425220,0.131965,0.151515
0.371457,0.205279,0.327468
0.488759,1.671554,1.187683
0.723363,1.075269,0.948192
0.527859,0.464321,0.488759
0.395894,0.244379,0.263930
0.645161,0.166178,0.185728
1.109482,0.156403,0.166178
0.957967,0.141740,0.156403
0.840665,0.131965,0.156403
0.571848,0.131965,0.151515
0.459433,0.131965,0.146628
0.361681,0.131965,0.146628
0.483871,0.131965,0.151515
0.376344,0.131965,0.151515
0.532747,0.131965,0.146628
0.532747,0.131965,0.146628
0.508309,0.356794,0.405670
0.786901,1.700880,1.837732
0.869990,1.260997,1.373412
0.591398,0.518084,0.557185
0.522972,0.263930,0.283480
0.576735,0.175953,0.195503
0.928641,0.151515,0.166178
1.260997,0.141740,0.156403
0.904203,0.136852,0.151515
0.948192,0.136852,0.151515
0.821114,0.131965,0.151515
0.845552,0.131965,0.146628
0.772239,0.131965,0.146628
0.620723,0.131965,0.146628
0.615836,0.136852,0.146628
0.444770,0.131965,0.161290
0.542522,1.915934,2.043011
0.493646,2.815249,2.585533
0.571848,1.124145,0.997067
0.518084,0.459433,0.430108
0.444770,0.239492,0.239492
0.518084,0.171065,0.180841
0.918866,0.146628,0.156403
1.001955,0.146628,0.156403
0.713587,0.136852,0.151515
0.747801,0.131965,0.151515
0.527859,0.131965,0.151515
0.439883,0.131965,0.151515
0.400782,0.131965,0.146628
0.488759,0.136852,0.151515
0.483871,0.131965,0.146628
0.425220,0.131965,0.146628
0.488759,0.386119,0.596285
0.405670,1.036168,2.096774
0.518084,0.816227,1.285435
0.503421,0.361681,0.522972
0.425220,0.205279,0.268817
0.835777,0.156403,0.190616
0.811339,0.141740,0.161290
1.378299,0.146628,0.156403
1.182796,0.136852,0.151515
1.246334,0.136852,0.146628
1.050831,0.136852,0.146628
0.918866,0.136852,0.156403
0.796676,0.131965,0.151515
0.620723,0.131965,0.151515
0.855327,0.127077,0.146628
0.571848,0.131965,0.151515
0.645161,0.210166,0.317693
0.488759,1.129032,1.935484
0.420332,1.485826,1.652004
0.581623,0.610948,0.645161
0.522972,0.288368,0.312805
0.650049,0.185728,0.210166
0.703812,0.151515,0.171065
0.997067,0.146628,0.156403
1.524927,0.151515,0.166178
1.485826,0.151515,0.161290
1.603128,0.141740,0.151515
0.899316,0.131965,0.151515
1.177908,0.141740,0.151515
0.889541,0.141740,0.146628
0.752688,0.136852,0.151515
0.454545,0.131965,0.151515
0.415445,0.219941,0.322581
0.503421,1.309873,1.691105
0.430108,1.363636,1.661779
0.503421,0.620723,0.918866
0.640274,0.303030,0.444770
0.654936,0.185728,0.254154
1.158358,0.151515,0.185728
1.148583,0.156403,0.161290
0.874878,0.151515,0.156403
0.640274,0.136852,0.151515
0.713587,0.136852,0.151515
0.752688,0.131965,0.151515
0.547410,0.131965,0.156403
0.532747,0.131965,0.146628
0.371457,0.131965,0.151515
0.371457,0.229717,0.547410
0.376344,1.280547,1.236559
0.478983,0.879765,1.075269
0.562072,0.395894,0.488759
0.351906,0.219941,0.278592
1.060606,0.171065,0.195503
1.368524,0.156403,0.166178
1.720430,0.161290,0.156403
1.598240,0.146628,0.151515
1.192571,0.156403,0.151515
0.933529,0.141740,0.151515
0.913978,0.136852,0.151515
0.615836,0.136852,0.146628
0.562072,0.131965,0.146628
0.625611,0.131965,0.151515
0.405670,0.713587,0.171065
0.278592,4.066471,0.625611
0.327468,3.802542,0.498534
0.347019,2.331378,0.288368
0.351906,0.855327,0.195503
0.865103,0.386119,0.166178
0.918866,0.239492,0.166178
1.461388,0.185728,0.171065
1.026393,0.161290,0.156403
1.138807,0.146628,0.156403
1.085044,0.141740,0.151515
0.992180,0.136852,0.146628
0.474096,0.136852,0.146628
0.522972,0.136852,0.151515
0.454545,0.136852,0.151515
0.332356,0.141740,0.146628
0.268817,0.874878,0.171065
0.391007,1.876833,0.249267
0.547410,1.710655,0.259042
0.738025,0.899316,0.185728
0.454545,0.400782,0.161290
0.796676,0.224829,0.156403
1.080156,0.175953,0.161290
1.554252,0.166178,0.171065
1.827957,0.156403,0.166178
2.082111,0.156403,0.175953
1.749756,0.141740,0.161290
1.309873,0.141740,0.156403
0.957967,0.141740,0.156403
0.791789,0.249267,0.156403
0.840665,0.312805,0.151515
0.566960,1.075269,0.239492
0.449658,2.404692,0.395894
0.527859,3.445748,0.532747
0.391007,1.617791,0.298143
0.606061,0.620723,0.200391
1.339198,0.307918,0.171065
1.461388,0.205279,0.166178
1.510264,0.171065,0.156403
1.373412,0.156403,0.171065
1.378299,0.141740,0.161290
0.801564,0.136852,0.151515
1.036168,0.131965,0.156403
0.850440,0.131965,0.151515
0.811339,0.127077,0.146628
0.566960,0.239492,0.156403
0.503421,1.989247,0.410557
0.351906,2.556207,0.459433
0.391007,2.038123,0.351906
0.449658,0.860215,0.219941
0.293255,0.376344,0.171065
0.948192,0.215054,0.161290
2.223851,0.180841,0.166178
2.629521,0.180841,0.166178
1.754643,0.156403,0.161290
1.549365,0.156403,0.156403
1.441838,0.146628,0.151515
1.671554,0.136852,0.151515
0.948192,0.136852,0.156403
0.904203,0.156403,0.151515
0.718475,0.141740,0.146628
0.625611,0.127077,0.151515
0.498534,0.884653,0.224829
0.483871,2.184751,0.351906
0.454545,2.033236,0.312805
0.518084,1.471163,0.234604
0.562072,0.615836,0.175953
0.694037,0.298143,0.156403
1.290323,0.190616,0.156403
1.979472,0.180841,0.180841
1.559140,0.166178,0.161290
1.373412,0.146628,0.156403
0.889541,0.136852,0.151515
0.855327,0.136852,0.146628
0.767351,0.131965,0.151515
0.884653,0.131965,0.146628
0.742913,0.136852,0.151515
0.488759,0.566960,0.175953
0.410557,2.091887,0.454545
0.581623,2.292278,0.420332
0.420332,1.041056,0.239492
0.381232,0.527859,0.180841
0.347019,0.259042,0.156403
0.679374,0.175953,0.151515
1.065494,0.156403,0.156403
1.402737,0.151515,0.175953
1.138807,0.151515,0.156403
1.319648,0.141740,0.156403
0.913978,0.136852,0.151515
0.742913,0.131965,0.151515
0.571848,0.131965,0.146628
0.415445,0.131965,0.151515
0.478983,0.131965,0.146628
0.430108,0.131965,0.151515
0.307918,0.972630,0.205279
0.239492,3.142717,0.532747
0.351906,2.815249,0.400782
0.239492,1.148583,0.234604
0.283480,0.469208,0.175953
0.288368,0.244379,0.161290
0.757576,0.166178,0.151515
0.865103,0.151515,0.156403
1.109482,0.141740,0.151515
0.679374,0.136852,0.146628
0.948192,0.136852,0.146628
0.796676,0.131965,0.151515
0.566960,0.141740,0.151515
0.557185,0.136852,0.146628
0.464321,0.224829,0.151515
0.332356,0.738025,0.171065
0.234604,2.106549,0.464321
0.371457,1.935484,0.351906
0.361681,1.231672,0.224829
0.307918,0.684262,0.175953
0.498534,0.322581,0.156403
1.065494,0.200391,0.151515
1.622678,0.171065,0.171065
2.546432,0.185728,0.175953
1.588465,0.156403,0.156403
1.515152,0.146628,0.156403
1.070381,0.136852,0.151515
0.694037,0.131965,0.151515
0.552297,0.131965,0.151515
0.469208,0.127077,0.146628
0.381232,0.200391,0.151515
0.425220,2.404692,0.410557
0.552297,2.346041,0.449658
0.303030,1.075269,0.259042
0.478983,0.537634,0.195503
0.430108,0.263930,0.166178
1.471163,0.190616,0.166178
1.818182,0.166178,0.166178
2.111437,0.175953,0.156403
2.434018,0.161290,0.161290
1.842620,0.141740,0.151515
1.432063,0.136852,0.151515
0.997067,0.131965,0.151515
0.733138,0.136852,0.151515
0.508309,0.131965,0.146628
0.337243,0.733138,0.205279
0.239492,2.697947,0.430108
0.400782,3.709677,0.532747
0.263930,1.593353,0.283480
0.332356,0.615836,0.190616
0.987292,0.303030,0.180841
1.695992,0.205279,0.190616
1.539589,0.156403,0.175953
1.925709,0.161290,0.166178
1.959922,0.171065,0.175953
1.153470,0.151515,0.156403
0.972630,0.141740,0.156403
0.733138,0.136852,0.151515
0.645161,0.136852,0.146628
0.684262,0.131965,0.146628
1.016618,0.146628,0.151515
0.518084,0.366569,0.190616
1.080156,0.694037,0.219941
1.529814,0.571848,0.210166
1.334311,0.420332,0.175953
0.957967,0.298143,0.166178
1.011730,0.259042,0.161290
0.821114,0.175953,0.151515
1.686217,0.156403,0.156403
1.612903,0.156403,0.161290
1.177908,0.136852,0.151515
1.075269,0.136852,0.151515
0.718475,0.136852,0.151515
0.664712,0.131965,0.151515
0.527859,0.131965,0.151515
0.689150,0.136852,0.146628
0.434995,0.141740,0.151515
0.444770,0.273705,0.156403
0.576735,1.241447,0.278592
0.821114,0.967742,0.234604
0.957967,0.645161,0.205279
0.835777,0.351906,0.175953
0.909091,0.215054,0.166178
1.168133,0.175953,0.161290
1.309873,0.161290,0.156403
1.314761,0.146628,0.156403
1.001955,0.136852,0.156403
1.016618,0.136852,0.156403
0.733138,0.136852,0.151515
0.659824,0.131965,0.156403
0.542522,0.146628,0.146628
0.801564,0.141740,0.156403
0.782014,0.268817,0.156403
0.503421,1.085044,0.356794
1.632454,0.811339,0.283480
1.417400,0.728250,0.244379
1.515152,0.332356,0.180841
0.923754,0.195503,0.161290
1.554252,0.156403,0.156403
1.764418,0.156403,0.156403
1.881720,0.146628,0.156403
1.280547,0.136852,0.151515
1.070381,0.131965,0.146628
0.650049,0.131965,0.146628
1.075269,0.131965,0.146628
0.576735,0.161290,0.151515
0.410557,0.869990,0.376344
1.251222,1.251222,0.391007
1.544477,0.708700,0.312805
1.935484,0.459433,0.224829
1.119257,0.239492,0.171065
1.598240,0.175953,0.166178
1.456500,0.161290,0.156403
1.119257,0.136852,0.156403
1.353861,0.136852,0.151515
0.909091,0.141740,0.151515
0.615836,0.136852,0.151515
0.571848,0.161290,0.146628
0.508309,0.195503,0.151515
0.596285,0.161290,0.151515
0.312805,0.381232,0.175953
0.698925,1.153470,0.288368
1.363636,0.801564,0.234604
1.060606,0.478983,0.190616
1.500489,0.254154,0.166178
1.407625,0.180841,0.156403
1.495601,0.151515,0.156403
2.091887,0.151515,0.161290
1.270772,0.136852,0.156403
1.031281,0.136852,0.156403
1.304985,0.136852,0.146628
1.202346,0.136852,0.151515
0.586510,0.185728,0.146628
0.620723,0.659824,0.205279
1.060606,1.221896,0.478983
1.304985,0.796676,0.342131
1.319648,0.527859,0.224829
1.129032,0.268817,0.180841
1.217009,0.180841,0.161290
1.319648,0.156403,0.161290
1.700880,0.141740,0.156403
1.314761,0.136852,0.156403
1.412512,0.146628,0.151515
1.207234,0.136852,0.151515
0.869990,0.131965,0.146628
0.855327,0.190616,0.156403
0.674487,0.205279,0.156403
0.454545,0.723363,0.205279
0.840665,1.050831,0.293255
0.967742,0.933529,0.303030
1.041056,0.620723,0.244379
1.187683,0.307918,0.185728
1.383187,0.205279,0.166178
1.632454,0.175953,0.175953
1.568915,0.161290,0.166178
1.564027,0.146628,0.151515
1.251222,0.131965,0.156403
1.217009,0.136852,0.151515
1.202346,0.131965,0.156403
0.850440,0.136852,0.156403
0.845552,0.254154,0.151515
0.576735,0.571848,0.195503
0.826002,1.011730,0.312805
1.495601,0.860215,0.273705
1.153470,0.562072,0.219941
1.124145,0.337243,0.180841
1.622678,0.215054,0.161290
1.432063,0.161290,0.156403
1.348974,0.146628,0.156403
1.060606,0.141740,0.156403
1.114370,0.131965,0.146628
0.723363,0.136852,0.146628
0.606061,0.131965,0.146628
0.620723,0.131965,0.146628
0.679374,0.131965,0.146628
0.400782,0.136852,0.151515
0.630499,0.131965,0.151515
0.547410,0.210166,0.156403
0.630499,1.114370,0.288368
1.031281,0.728250,0.244379
1.383187,0.469208,0.205279
1.251222,0.254154,0.166178
1.070381,0.180841,0.156403
1.466276,0.151515,0.156403
1.412512,0.141740,0.151515
1.441838,0.136852,0.151515
1.055718,0.136852,0.151515
0.904203,0.136852,0.151515
0.913978,0.136852,0.151515
1.182796,0.131965,0.151515
1.085044,0.136852,0.151515
0.557185,0.488759,0.195503
0.566960,1.089932,0.317693
1.129032,0.933529,0.278592
1.026393,0.767351,0.234604
1.177908,0.542522,0.200391
0.782014,0.332356,0.175953
0.928641,0.210166,0.156403
1.143695,0.166178,0.156403
1.295210,0.146628,0.166178
1.622678,0.180841,0.161290
2.223851,0.190616,0.156403
2.238514,0.156403,0.161290
2.062561,0.151515,0.166178
1.573803,0.146628,0.166178
1.256109,0.141740,0.161290
1.036168,0.146628,0.156403
1.109482,0.136852,0.156403
0.782014,0.136852,0.151515
0.928641,0.845552,0.224829
0.566960,4.496579,2.096774
0.606061,4.496579,2.223851
0.400782,4.496579,1.207234
0.254154,1.725318,0.518084
0.410557,0.894428,0.307918
0.439883,0.811339,0.234604
0.444770,0.376344,0.195503
0.244379,1.593353,0.405670
0.175953,0.772239,0.244379
0.151515,0.786901,0.254154
0.742913,0.596285,0.234604
1.016618,0.478983,0.210166
0.962854,0.386119,0.234604
0.498534,0.263930,0.190616
0.366569,0.278592,0.180841
0.307918,0.215054,0.166178
0.303030,0.171065,0.161290
0.757576,0.156403,0.156403
0.723363,0.190616,0.161290
1.270772,0.171065,0.161290
1.006843,0.180841,0.166178
1.348974,0.156403,0.161290
1.260997,0.156403,0.156403
1.241447,0.166178,0.166178
1.520039,0.156403,0.180841
1.603128,0.156403,0.224829
1.295210,0.151515,0.195503
1.246334,0.141740,0.185728
1.476051,0.151515,0.180841
1.217009,0.141740,0.171065
1.124145,0.151515,0.171065
1.050831,0.151515,0.180841
0.918866,0.151515,0.185728
4.496579,0.166178,0.185728
4.496579,0.175953,0.175953
4.496579,0.190616,0.171065
4.501466,0.205279,0.185728
4.496579,0.913978,0.180841
4.496579,0.498534,0.185728
4.501466,0.332356,0.200391
4.496579,0.278592,0.205279
4.501466,1.314761,0.210166
4.496579,0.606061,0.185728
4.496579,2.781036,0.337243
4.496579,3.602151,0.229717
4.501466,3.304008,0.532747
4.496579,4.393939,0.303030
4.496579,2.580645,0.410557
4.496579,3.269795,0.268817
4.496579,2.663734,0.215054
4.496579,1.896383,0.195503
4.496579,2.482893,0.234604
4.496579,2.277615,0.205279
4.501466,4.496579,0.889541
4.496579,4.496579,1.065494
4.496579,4.496579,0.640274
4.501466,4.477028,0.361681
4.501466,4.496579,0.244379
4.501466,4.506354,1.221896
4.496579,4.496579,0.884653
